2023-12-08 00:44:45,-62,-61,-58,-61,-56,-58,-59,-57,-63,-55,-62,-60,-56,-62,-58,-57
2023-12-08 00:44:45,-60,-54,-63,-58,-61,-65,-58,-66,-64,-61,-67,-59,-64,-66,-62,-66
2023-12-08 00:44:45,-63,-66,-68,-61,-68,-64,-63,-69,-61,-71,-65,-61,-64,-56,-59,-59
2023-12-08 00:44:45,-57,-59,-53,-56,-55,-51,-58,-49,-54,-53,-49,-53,-48,-48,-50,-45
2023-12-08 00:44:45,-51,-49,-49,-54,-49,-53,-51,-49,-51,-46,-49,-50,-47,-51,-46,-51
2023-12-08 00:44:45,-54,-48,-54,-53,-54,-58,-52,-56,-55,-55,-59,-55,-60,-59,-53,-59
2023-12-08 00:44:45,-52,-56,-58,-55,-62,-56,-57,-59,-55,-61,-62,-60,-64,-57,-60,-62
2023-12-08 00:44:46,-59,-61,-54,-57,-57,-53,-60,-56,-56,-59,-55,-61,-57,-57,-60,-56
2023-12-08 00:44:46,-60,-59,-55,-60,-53,-59,-56,-53,-59,-54,-58,-57,-53,-60,-55,-57
2023-12-08 00:44:46,-61,-57,-65,-61,-60,-64,-58,-60,-58,-55,-57,-51,-55,-58,-53,-60
2023-12-08 00:44:46,-54,-56,-56,-51,-60,-56,-60,-62,-55,-60,-57,-55,-60,-52,-58,-58
2023-12-08 00:44:46,-57,-61,-54,-58,-57,-53,-59,-57,-60,-61,-56,-59,-56,-57,-65,-55
2023-12-08 00:44:46,-60,-57,-58,-60,-55,-58,-59,-54,-60,-55,-59,-57,-54,-59,-56,-57
2023-12-08 00:44:46,-58,-54,-60,-56,-56,-62,-54,-55,-54,-50,-58,-50,-51,-51,-49,-53
2023-12-08 00:44:46,-49,-52,-53,-50,-56,-51,-53,-56,-50,-54,-52,-49,-53,-49,-52,-52
2023-12-08 00:44:46,-49,-56,-51,-56,-56,-54,-63,-61,-62,-64,-55,-64,-62,-64,-68,-61
2023-12-08 00:44:47,-66,-63,-60,-68,-62,-66,-66,-63,-69,-65,-67,-67,-61,-69,-64,-66
2023-12-08 00:44:47,-69,-63,-69,-65,-66,-71,-60,-67,-65,-64,-66,-61,-65,-65,-62,-67
2023-12-08 00:44:47,-61,-64,-64,-60,-66,-61,-58,-60,-53,-56,-52,-47,-52,-46,-48,-47
2023-12-08 00:44:47,-43,-48,-43,-45,-46,-43,-47,-43,-43,-45,-40,-48,-47,-46,-52,-46
2023-12-08 00:44:47,-51,-49,-50,-56,-52,-54,-54,-53,-59,-54,-55,-58,-57,-65,-61,-63
2023-12-08 00:44:47,-68,-62,-69,-65,-65,-70,-61,-65,-67,-64,-68,-62,-64,-61,-58,-64
2023-12-08 00:44:47,-61,-61,-64,-58,-64,-61,-62,-66,-59,-65,-62,-60,-65,-58,-61,-61
2023-12-08 00:44:47,-57,-61,-56,-58,-59,-56,-61,-58,-59,-64,-58,-63,-59,-57,-62,-55
2023-12-08 00:44:47,-58,-57,-56,-61,-55,-60,-60,-54,-62,-58,-58,-61,-55,-60,-57,-59
2023-12-08 00:44:47,-64,-58,-61,-59,-58,-62,-55,-58,-58,-55,-60,-55,-59,-57,-56,-61
2023-12-08 00:44:47,-58,-60,-60,-56,-61,-58,-58,-61,-55,-59,-57,-57,-61,-54,-60,-59
2023-12-08 00:44:48,-56,-61,-57,-58,-58,-54,-61,-57,-60,-63,-57,-63,-60,-59,-65,-58
2023-12-08 00:44:48,-60,-59,-56,-61,-56,-60,-59,-56,-65,-63,-63,-66,-57,-64,-60,-59
2023-12-08 00:44:48,-63,-58,-60,-58,-56,-62,-54,-59,-59,-56,-63,-59,-61,-60,-53,-62
2023-12-08 00:44:48,-57,-59,-58,-54,-60,-58,-56,-59,-51,-56,-56,-56,-61,-53,-60,-60
2023-12-08 00:44:48,-56,-61,-57,-59,-58,-56,-60,-57,-60,-63,-57,-59,-58,-56,-61,-54
2023-12-08 00:44:48,-58,-60,-56,-62,-55,-59,-57,-52,-60,-57,-59,-60,-57,-65,-58,-56
2023-12-08 00:44:48,-56,-49,-56,-54,-48,-54,-51,-54,-52,-51,-58,-52,-56,-56,-51,-58
2023-12-08 00:44:48,-54,-54,-56,-48,-59,-55,-56,-59,-53,-59,-58,-53,-59,-53,-59,-58
2023-12-08 00:44:48,-54,-59,-54,-56,-59,-54,-62,-57,-58,-61,-56,-64,-62,-61,-64,-55
2023-12-08 00:44:48,-59,-61,-57,-63,-57,-61,-60,-55,-61,-58,-59,-62,-54,-62,-57,-58
2023-12-08 00:44:48,-63,-55,-61,-58,-54,-60,-55,-59,-59,-53,-60,-55,-58,-60,-54,-63
2023-12-08 00:44:49,-57,-60,-62,-54,-61,-58,-58,-63,-56,-60,-60,-56,-62,-58,-58,-57
2023-12-08 00:44:49,-50,-57,-53,-56,-58,-52,-60,-55,-56,-61,-56,-62,-59,-58,-63,-55
2023-12-08 00:44:49,-59,-59,-55,-65,-59,-60,-56,-52,-60,-56,-56,-59,-52,-62,-57,-55
2023-12-08 00:44:49,-60,-54,-60,-59,-56,-63,-57,-61,-59,-52,-59,-57,-59,-62,-54,-60
2023-12-08 00:44:49,-57,-59,-61,-55,-60,-59,-58,-64,-56,-61,-59,-56,-61,-55,-59,-57
2023-12-08 00:44:49,-52,-60,-58,-59,-62,-53,-63,-58,-60,-63,-57,-61,-59,-57,-62,-58
2023-12-08 00:44:49,-62,-62,-55,-61,-58,-61,-60,-53,-63,-59,-58,-60,-52,-61,-57,-55
2023-12-08 00:44:49,-59,-55,-61,-61,-56,-63,-57,-62,-62,-55,-60,-55,-59,-57,-50,-56
2023-12-08 00:44:49,-54,-53,-56,-49,-53,-53,-52,-56,-51,-54,-52,-49,-57,-52,-55,-55
2023-12-08 00:44:49,-51,-55,-53,-55,-59,-50,-57,-51,-51,-55,-50,-57,-58,-56,-59,-54
2023-12-08 00:44:50,-59,-59,-54,-61,-57,-64,-62,-56,-64,-60,-63,-66,-59,-67,-63,-61
2023-12-08 00:44:50,-67,-60,-65,-65,-61,-67,-63,-66,-67,-62,-67,-61,-66,-67,-59,-65
2023-12-08 00:44:50,-56,-55,-58,-54,-57,-56,-52,-56,-51,-52,-51,-48,-54,-49,-53,-52
2023-12-08 00:44:50,-49,-53,-51,-53,-55,-49,-56,-55,-55,-58,-54,-57,-58,-55,-59,-51
2023-12-08 00:44:50,-58,-59,-58,-61,-59,-59,-60,-55,-61,-56,-58,-61,-57,-62,-60,-58
2023-12-08 00:44:50,-60,-53,-57,-57,-56,-61,-55,-58,-56,-54,-59,-58,-60,-60,-55,-62
2023-12-08 00:44:50,-56,-56,-61,-54,-59,-59,-58,-61,-55,-60,-61,-56,-63,-57,-58,-57
2023-12-08 00:44:50,-54,-61,-56,-57,-59,-57,-62,-59,-57,-63,-57,-59,-57,-56,-60,-54
2023-12-08 00:44:50,-62,-62,-55,-61,-56,-57,-59,-54,-60,-58,-60,-63,-57,-62,-59,-60
2023-12-08 00:44:50,-64,-56,-60,-61,-58,-64,-60,-61,-58,-54,-60,-57,-60,-60,-56,-61
2023-12-08 00:44:50,-58,-57,-61,-54,-59,-57,-56,-61,-54,-61,-61,-54,-61,-56,-58,-60
2023-12-08 00:44:51,-56,-65,-59,-59,-64,-60,-66,-64,-59,-61,-55,-60,-61,-58,-63,-57
2023-12-08 00:44:51,-63,-60,-56,-63,-60,-60,-64,-57,-64,-59,-60,-62,-55,-61,-59,-60
2023-12-08 00:44:51,-63,-55,-61,-60,-55,-62,-56,-61,-59,-55,-64,-59,-59,-60,-56,-65
2023-12-08 00:44:51,-62,-60,-62,-55,-61,-59,-58,-62,-56,-62,-63,-56,-61,-55,-57,-60
2023-12-08 00:44:51,-54,-62,-56,-59,-58,-52,-54,-53,-51,-56,-51,-54,-52,-52,-58,-54
2023-12-08 00:44:51,-60,-59,-58,-63,-62,-62,-64,-58,-64,-62,-61,-65,-58,-65,-63,-62
2023-12-08 00:44:51,-68,-64,-67,-68,-64,-67,-64,-70,-69,-65,-69,-63,-63,-66,-55,-58
2023-12-08 00:44:51,-51,-49,-52,-48,-50,-47,-45,-51,-49,-54,-55,-53,-58,-53,-58,-58
2023-12-08 00:44:51,-56,-62,-57,-56,-60,-53,-60,-56,-57,-62,-55,-59,-58,-55,-64,-57
2023-12-08 00:44:51,-60,-57,-52,-58,-54,-56,-57,-52,-57,-53,-53,-58,-53,-55,-56,-55
2023-12-08 00:44:52,-59,-52,-56,-57,-53,-61,-53,-55,-55,-53,-58,-56,-57,-61,-55,-60
2023-12-08 00:44:52,-58,-56,-61,-53,-57,-56,-56,-61,-55,-58,-57,-54,-63,-62,-61,-62
2023-12-08 00:44:52,-55,-64,-61,-61,-65,-57,-63,-58,-58,-62,-56,-60,-61,-56,-62,-55
2023-12-08 00:44:52,-59,-61,-57,-65,-58,-59,-62,-58,-62,-60,-57,-62,-56,-61,-61,-60
2023-12-08 00:44:52,-64,-56,-61,-62,-59,-64,-57,-57,-59,-57,-64,-60,-61,-64,-56,-62
2023-12-08 00:44:52,-59,-60,-65,-55,-60,-60,-57,-63,-56,-60,-60,-56,-65,-60,-61,-63
2023-12-08 00:44:52,-58,-64,-62,-60,-63,-56,-61,-60,-58,-63,-57,-63,-64,-60,-66,-60
2023-12-08 00:44:52,-63,-64,-60,-66,-59,-58,-60,-56,-62,-61,-58,-63,-57,-61,-59,-56
2023-12-08 00:44:52,-60,-53,-57,-58,-55,-60,-54,-57,-60,-55,-63,-58,-57,-61,-55,-62
2023-12-08 00:44:52,-60,-56,-62,-53,-59,-59,-53,-59,-54,-58,-58,-54,-61,-57,-57,-61
2023-12-08 00:44:52,-53,-63,-61,-58,-63,-56,-61,-59,-55,-60,-52,-60,-63,-61,-66,-61
2023-12-08 00:44:53,-64,-64,-59,-66,-60,-61,-65,-58,-64,-60,-59,-62,-56,-58,-61,-58
2023-12-08 00:44:53,-65,-59,-62,-59,-55,-60,-57,-58,-61,-54,-59,-53,-55,-57,-52,-56
2023-12-08 00:44:53,-54,-50,-55,-49,-56,-55,-54,-59,-54,-58,-60,-56,-64,-59,-59,-62
2023-12-08 00:44:53,-55,-63,-58,-56,-61,-54,-60,-60,-56,-61,-55,-60,-60,-55,-62,-58
2023-12-08 00:44:53,-61,-62,-56,-63,-60,-59,-64,-56,-62,-59,-58,-63,-56,-59,-60,-56
2023-12-08 00:44:53,-64,-59,-60,-57,-54,-62,-58,-60,-60,-51,-59,-56,-56,-60,-55,-61
2023-12-08 00:44:53,-59,-57,-61,-54,-59,-59,-53,-58,-54,-57,-59,-53,-60,-57,-58,-62
2023-12-08 00:44:53,-52,-61,-56,-56,-60,-52,-56,-59,-54,-61,-52,-57,-57,-53,-59,-55
2023-12-08 00:44:53,-57,-59,-53,-61,-58,-58,-63,-54,-61,-59,-60,-63,-56,-57,-57,-52
2023-12-08 00:44:53,-57,-50,-52,-53,-50,-60,-54,-55,-58,-52,-60,-58,-57,-62,-54,-57
2023-12-08 00:44:53,-56,-51,-57,-53,-58,-59,-55,-61,-58,-63,-64,-58,-64,-60,-60,-63
2023-12-08 00:44:54,-55,-61,-59,-59,-65,-58,-60,-63,-59,-64,-59,-64,-63,-57,-63,-57
2023-12-08 00:44:54,-61,-62,-58,-64,-59,-60,-65,-58,-64,-61,-58,-63,-57,-63,-61,-56
2023-12-08 00:44:54,-61,-59,-61,-64,-58,-66,-61,-62,-64,-63,-70,-66,-66,-72,-64,-70
2023-12-08 00:44:54,-71,-69,-74,-69,-71,-73,-68,-76,-70,-72,-74,-69,-75,-72,-70,-74
2023-12-08 00:44:54,-69,-75,-75,-71,-74,-65,-72,-71,-65,-70,-64,-67,-67,-60,-66,-62
2023-12-08 00:44:54,-62,-62,-54,-60,-55,-54,-56,-49,-55,-53,-50,-54,-47,-48,-49,-44
2023-12-08 00:44:54,-49,-44,-46,-48,-43,-49,-44,-44,-48,-43,-49,-50,-48,-55,-48,-56
2023-12-08 00:44:54,-55,-57,-63,-57,-62,-62,-58,-63,-60,-62,-63,-57,-63,-59,-62,-69
2023-12-08 00:44:54,-59,-62,-56,-55,-61,-56,-57,-57,-53,-61,-59,-62,-62,-56,-62,-56
2023-12-08 00:44:54,-58,-59,-53,-62,-57,-57,-63,-53,-59,-57,-53,-59,-52,-52,-55,-46
2023-12-08 00:44:54,-53,-45,-45,-47,-39,-45,-38,-39,-48,-39,-46,-39,-39,-46,-44,-48
2023-12-08 00:44:55,-48,-47,-54,-47,-52,-54,-50,-59,-56,-59,-61,-60,-69,-67,-67,-72
2023-12-08 00:44:55,-66,-72,-71,-69,-74,-66,-70,-69,-66,-69,-66,-67,-69,-65,-73,-66
2023-12-08 00:44:55,-67,-67,-60,-65,-63,-64,-70,-62,-69,-67,-64,-68,-62,-69,-67,-62
2023-12-08 00:44:55,-67,-65,-68,-71,-65,-70,-64,-64,-70,-63,-68,-64,-63,-70,-63,-65
2023-12-08 00:44:55,-65,-61,-69,-67,-68,-66,-62,-68,-65,-67,-70,-63,-72,-67,-66,-71
2023-12-08 00:44:55,-65,-71,-70,-66,-69,-65,-68,-68,-61,-68,-66,-67,-68,-61,-69,-63
2023-12-08 00:44:55,-66,-68,-62,-68,-66,-64,-69,-60,-66,-67,-66,-69,-62,-66,-65,-62
2023-12-08 00:44:55,-68,-64,-65,-68,-64,-70,-66,-66,-70,-61,-67,-66,-65,-68,-61,-64
2023-12-08 00:44:55,-67,-63,-70,-62,-65,-64,-60,-67,-62,-65,-67,-60,-69,-62,-62,-68
2023-12-08 00:44:55,-59,-66,-64,-61,-66,-60,-63,-64,-59,-66,-62,-64,-65,-57,-67,-63
2023-12-08 00:44:55,-64,-69,-60,-68,-66,-65,-68,-61,-64,-67,-62,-69,-62,-66,-64,-59
2023-12-08 00:44:56,-70,-67,-69,-69,-64,-73,-69,-65,-70,-64,-70,-68,-65,-68,-61,-66
2023-12-08 00:44:56,-65,-62,-68,-62,-67,-67,-62,-66,-63,-65,-69,-62,-69,-63,-63,-68
2023-12-08 00:44:56,-62,-68,-67,-66,-70,-64,-67,-64,-60,-67,-64,-66,-68,-60,-68,-62
2023-12-08 00:44:56,-64,-67,-61,-66,-64,-63,-69,-63,-67,-67,-64,-70,-66,-69,-66,-63
2023-12-08 00:44:56,-70,-65,-67,-69,-64,-71,-64,-64,-71,-65,-73,-70,-66,-68,-61,-67
2023-12-08 00:44:56,-69,-64,-69,-62,-66,-66,-60,-67,-62,-61,-63,-58,-66,-63,-64,-70
2023-12-08 00:44:56,-64,-69,-67,-65,-70,-65,-70,-69,-63,-69,-64,-66,-68,-62,-71,-67
2023-12-08 00:44:56,-69,-72,-64,-72,-70,-67,-70,-62,-69,-70,-70,-77,-73,-77,-78,-71
2023-12-08 00:44:56,-80,-76,-80,-81,-76,-81,-74,-75,-80,-71,-77,-73,-70,-77,-67,-74
2023-12-08 00:44:56,-73,-68,-74,-69,-72,-72,-66,-71,-66,-64,-65,-56,-65,-63,-61,-62
2023-12-08 00:44:56,-52,-59,-59,-57,-61,-53,-58,-59,-56,-63,-55,-58,-61,-56,-64,-59
2023-12-08 00:44:57,-58,-64,-54,-62,-59,-59,-64,-57,-61,-62,-58,-66,-59,-62,-62,-55
2023-12-08 00:44:57,-63,-57,-60,-60,-54,-63,-57,-61,-65,-57,-62,-57,-54,-60,-59,-63
2023-12-08 00:44:57,-63,-55,-60,-53,-60,-61,-57,-65,-61,-61,-64,-55,-64,-63,-61,-65
2023-12-08 00:44:57,-57,-64,-65,-61,-65,-60,-67,-67,-60,-66,-61,-64,-65,-60,-66,-62
2023-12-08 00:44:57,-59,-63,-59,-68,-65,-63,-65,-59,-65,-65,-61,-66,-60,-63,-63,-59
2023-12-08 00:44:57,-66,-60,-61,-65,-58,-66,-62,-60,-65,-57,-66,-64,-61,-63,-56,-61
2023-12-08 00:44:57,-63,-60,-67,-61,-64,-63,-58,-67,-62,-63,-67,-59,-65,-63,-62,-69
2023-12-08 00:44:57,-61,-65,-64,-60,-63,-57,-59,-60,-53,-60,-52,-55,-54,-47,-53,-51
2023-12-08 00:44:57,-54,-56,-50,-52,-50,-47,-55,-50,-59,-58,-55,-59,-51,-57,-58,-54
2023-12-08 00:44:57,-63,-59,-62,-66,-57,-64,-59,-61,-66,-59,-65,-64,-64,-68,-62,-68
2023-12-08 00:44:57,-68,-63,-68,-66,-68,-69,-63,-69,-64,-64,-69,-64,-69,-66,-64,-72
2023-12-08 00:44:58,-63,-67,-67,-64,-67,-60,-63,-63,-61,-67,-65,-65,-66,-62,-70,-68
2023-12-08 00:44:58,-68,-71,-61,-66,-63,-63,-65,-59,-63,-65,-63,-69,-65,-65,-65,-59
2023-12-08 00:44:58,-68,-61,-64,-65,-61,-67,-63,-63,-68,-61,-64,-64,-62,-66,-61,-65
2023-12-08 00:44:58,-63,-60,-64,-61,-63,-65,-58,-65,-61,-62,-64,-54,-64,-61,-63,-65
2023-12-08 00:44:58,-57,-59,-63,-59,-69,-61,-64,-62,-56,-64,-61,-62,-65,-60,-66,-62
2023-12-08 00:44:58,-61,-65,-58,-65,-65,-66,-68,-61,-63,-64,-60,-66,-59,-62,-64,-61
2023-12-08 00:44:58,-70,-64,-61,-63,-56,-64,-62,-60,-64,-57,-64,-63,-61,-64,-58,-63
2023-12-08 00:44:58,-63,-57,-63,-61,-61,-63,-57,-66,-62,-63,-67,-59,-66,-62,-61,-66
2023-12-08 00:44:58,-59,-63,-62,-58,-67,-63,-65,-63,-60,-66,-63,-62,-64,-58,-67,-62
2023-12-08 00:44:58,-63,-66,-60,-66,-64,-62,-67,-60,-64,-62,-58,-64,-59,-63,-63,-59
2023-12-08 00:44:59,-67,-64,-64,-67,-59,-67,-63,-61,-65,-58,-63,-64,-62,-69,-61,-65
2023-12-08 00:44:59,-64,-60,-68,-64,-65,-64,-58,-67,-62,-64,-67,-60,-64,-63,-62,-68
2023-12-08 00:44:59,-61,-66,-64,-60,-65,-59,-64,-64,-59,-67,-62,-64,-66,-59,-65,-60
2023-12-08 00:44:59,-61,-66,-58,-66,-63,-60,-63,-56,-61,-62,-58,-64,-56,-62,-62,-57
2023-12-08 00:44:59,-67,-62,-63,-65,-57,-66,-63,-62,-68,-60,-65,-62,-60,-64,-58,-64
2023-12-08 00:44:59,-63,-58,-64,-60,-63,-64,-59,-67,-63,-65,-68,-58,-64,-62,-61,-65
2023-12-08 00:44:59,-58,-59,-61,-57,-65,-61,-65,-63,-59,-66,-61,-63,-65,-57,-67,-62
2023-12-08 00:44:59,-60,-65,-56,-66,-62,-61,-65,-61,-65,-63,-57,-63,-60,-64,-64,-58
2023-12-08 00:44:59,-67,-62,-64,-66,-59,-69,-65,-64,-66,-58,-63,-64,-61,-65,-60,-63
2023-12-08 00:44:59,-66,-61,-67,-63,-64,-65,-57,-65,-62,-63,-69,-61,-67,-64,-62,-66
2023-12-08 00:44:59,-59,-63,-65,-62,-67,-60,-62,-62,-59,-68,-63,-63,-64,-57,-66,-62
2023-12-08 00:45:00,-61,-65,-59,-65,-64,-63,-66,-59,-65,-64,-61,-66,-64,-66,-65,-59
2023-12-08 00:45:00,-67,-63,-66,-69,-63,-70,-65,-62,-66,-59,-63,-64,-62,-66,-61,-66
2023-12-08 00:45:00,-65,-63,-65,-60,-64,-68,-61,-69,-63,-63,-69,-63,-66,-63,-60,-66
2023-12-08 00:45:00,-58,-63,-62,-60,-67,-61,-62,-60,-57,-65,-61,-62,-63,-57,-66,-63
2023-12-08 00:45:00,-62,-65,-59,-66,-63,-61,-65,-59,-62,-63,-58,-65,-60,-63,-63,-59
2023-12-08 00:45:00,-68,-62,-61,-66,-57,-66,-62,-61,-65,-59,-62,-64,-59,-65,-59,-64
2023-12-08 00:45:00,-65,-61,-67,-62,-65,-64,-58,-65,-63,-66,-69,-61,-64,-64,-63,-69
2023-12-08 00:45:00,-61,-66,-67,-63,-67,-61,-64,-63,-58,-65,-62,-63,-65,-58,-66,-63
2023-12-08 00:45:00,-62,-67,-59,-64,-62,-61,-65,-59,-62,-63,-58,-67,-61,-64,-60,-58
2023-12-08 00:45:00,-67,-62,-62,-65,-56,-63,-61,-59,-65,-59,-65,-65,-59,-63,-57,-62
2023-12-08 00:45:01,-64,-59,-63,-59,-60,-63,-54,-65,-59,-61,-67,-59,-63,-61,-59,-64
2023-12-08 00:45:01,-58,-63,-61,-57,-63,-57,-62,-61,-57,-63,-60,-61,-63,-55,-63,-59
2023-12-08 00:45:01,-60,-64,-60,-64,-62,-58,-65,-59,-64,-61,-56,-61,-59,-64,-63,-58
2023-12-08 00:45:01,-66,-63,-63,-65,-55,-62,-59,-62,-67,-60,-60,-60,-55,-64,-59,-65
2023-12-08 00:45:01,-65,-60,-65,-63,-64,-67,-58,-65,-63,-63,-68,-59,-64,-64,-63,-68
2023-12-08 00:45:01,-63,-66,-66,-62,-66,-61,-62,-62,-58,-67,-62,-62,-65,-58,-67,-65
2023-12-08 00:45:01,-64,-68,-60,-63,-63,-61,-67,-61,-64,-64,-59,-66,-60,-62,-62,-58
2023-12-08 00:45:01,-66,-61,-61,-65,-58,-65,-61,-59,-64,-57,-64,-64,-57,-63,-58,-65
2023-12-08 00:45:01,-65,-61,-65,-61,-63,-66,-59,-67,-61,-62,-67,-58,-64,-61,-60,-64
2023-12-08 00:45:01,-59,-63,-65,-61,-68,-62,-63,-62,-58,-67,-63,-65,-66,-59,-63,-61
2023-12-08 00:45:02,-59,-65,-57,-64,-61,-62,-67,-60,-64,-62,-56,-63,-58,-63,-62,-58
2023-12-08 00:45:02,-65,-61,-62,-65,-58,-65,-62,-60,-66,-59,-66,-63,-59,-65,-61,-66
2023-12-08 00:45:02,-66,-59,-66,-62,-65,-65,-60,-67,-65,-64,-66,-56,-65,-63,-64,-67
2023-12-08 00:45:02,-60,-61,-64,-60,-67,-60,-61,-61,-58,-65,-61,-63,-66,-60,-66,-62
2023-12-08 00:45:02,-61,-66,-60,-64,-62,-60,-65,-62,-65,-65,-56,-61,-56,-60,-62,-57
2023-12-08 00:45:02,-64,-61,-63,-65,-55,-63,-60,-60,-64,-57,-62,-62,-58,-64,-58,-66
2023-12-08 00:45:02,-65,-61,-65,-62,-63,-64,-58,-66,-60,-60,-65,-57,-64,-61,-60,-66
2023-12-08 00:45:02,-60,-64,-61,-57,-66,-60,-64,-63,-57,-64,-61,-63,-65,-58,-66,-62
2023-12-08 00:45:02,-63,-67,-58,-65,-62,-60,-64,-59,-65,-66,-61,-66,-61,-63,-64,-58
2023-12-08 00:45:02,-66,-61,-60,-62,-54,-64,-63,-62,-65,-57,-62,-64,-61,-66,-60,-66
2023-12-08 00:45:03,-64,-57,-65,-62,-65,-67,-61,-66,-62,-61,-66,-59,-67,-63,-63,-67
2023-12-08 00:45:03,-59,-61,-62,-60,-67,-58,-62,-61,-58,-65,-60,-63,-64,-61,-67,-63
2023-12-08 00:45:03,-61,-65,-58,-67,-63,-64,-66,-59,-63,-63,-59,-64,-58,-63,-62,-58
2023-12-08 00:45:03,-66,-60,-59,-62,-56,-68,-65,-63,-64,-58,-63,-62,-61,-65,-58,-63
2023-12-08 00:45:03,-64,-59,-65,-63,-63,-65,-57,-63,-61,-61,-67,-59,-64,-63,-61,-67
2023-12-08 00:45:03,-60,-63,-64,-60,-66,-61,-65,-62,-59,-66,-61,-62,-64,-58,-68,-63
2023-12-08 00:45:03,-62,-65,-56,-64,-60,-59,-65,-60,-66,-65,-61,-68,-60,-63,-63,-59
2023-12-08 00:45:03,-65,-60,-61,-66,-59,-66,-62,-61,-64,-58,-64,-63,-59,-64,-58,-64
2023-12-08 00:45:03,-63,-59,-65,-61,-64,-65,-59,-66,-62,-63,-67,-57,-64,-63,-64,-67
2023-12-08 00:45:03,-58,-62,-63,-59,-66,-61,-64,-62,-59,-68,-65,-65,-65,-58,-67,-65
2023-12-08 00:45:04,-63,-65,-57,-63,-62,-60,-66,-61,-68,-68,-61,-66,-61,-64,-66,-60
2023-12-08 00:45:04,-69,-62,-63,-65,-56,-66,-64,-62,-66,-58,-64,-63,-62,-67,-60,-65
2023-12-08 00:45:04,-64,-59,-66,-63,-64,-65,-58,-65,-62,-62,-66,-60,-64,-63,-61,-67
2023-12-08 00:45:04,-59,-63,-65,-62,-69,-62,-65,-63,-59,-66,-60,-64,-66,-60,-66,-61
2023-12-08 00:45:04,-59,-64,-56,-66,-62,-60,-63,-57,-62,-62,-59,-65,-60,-62,-63,-58
2023-12-08 00:45:04,-66,-63,-64,-69,-61,-68,-62,-60,-64,-58,-63,-64,-58,-64,-57,-63
2023-12-08 00:45:04,-62,-58,-63,-58,-62,-65,-57,-66,-62,-61,-68,-62,-68,-65,-62,-67
2023-12-08 00:45:04,-60,-65,-63,-59,-66,-60,-64,-63,-57,-65,-60,-64,-66,-60,-67,-62
2023-12-08 00:45:04,-61,-66,-58,-65,-63,-59,-63,-58,-65,-65,-60,-64,-60,-67,-66,-63
2023-12-08 00:45:05,-69,-65,-66,-69,-63,-70,-66,-68,-72,-64,-70,-71,-69,-76,-69,-73
2023-12-08 00:45:05,-73,-68,-74,-70,-73,-76,-69,-78,-71,-71,-75,-67,-74,-71,-72,-76
2023-12-08 00:45:05,-67,-73,-73,-72,-74,-68,-70,-67,-60,-66,-62,-64,-63,-57,-63,-59
2023-12-08 00:45:05,-59,-63,-56,-61,-59,-59,-64,-60,-65,-64,-58,-67,-60,-63,-59,-54
2023-12-08 00:45:05,-61,-58,-60,-62,-55,-61,-60,-60,-62,-55,-59,-60,-58,-64,-55,-59
2023-12-08 00:45:05,-59,-56,-63,-59,-61,-62,-58,-61,-56,-55,-59,-55,-61,-59,-56,-61
2023-12-08 00:45:05,-55,-59,-59,-55,-62,-57,-62,-61,-56,-61,-55,-58,-59,-53,-60,-56
2023-12-08 00:45:05,-55,-60,-54,-60,-58,-58,-65,-57,-63,-62,-61,-68,-65,-66,-65,-61
2023-12-08 00:45:05,-67,-62,-64,-67,-63,-70,-68,-68,-71,-68,-75,-73,-69,-73,-66,-64
2023-12-08 00:45:05,-62,-55,-62,-56,-60,-58,-53,-59,-55,-56,-62,-57,-61,-59,-58,-62
2023-12-08 00:45:06,-55,-61,-61,-59,-66,-60,-63,-62,-57,-63,-60,-61,-66,-62,-68,-61
2023-12-08 00:45:06,-60,-64,-60,-63,-60,-59,-66,-58,-63,-63,-58,-67,-61,-64,-61,-56
2023-12-08 00:45:06,-63,-60,-63,-63,-60,-65,-62,-59,-65,-57,-62,-60,-61,-66,-61,-65
2023-12-08 00:45:06,-63,-57,-64,-60,-61,-62,-58,-66,-60,-63,-63,-57,-60,-61,-58,-64
2023-12-08 00:45:06,-57,-64,-64,-62,-66,-61,-64,-62,-57,-65,-63,-65,-68,-61,-67,-63
2023-12-08 00:45:06,-63,-66,-62,-65,-63,-62,-67,-62,-67,-64,-57,-64,-57,-61,-61,-56
2023-12-08 00:45:06,-62,-59,-60,-62,-58,-65,-63,-63,-67,-60,-63,-62,-60,-65,-58,-62
2023-12-08 00:45:06,-62,-57,-64,-59,-60,-62,-58,-64,-59,-60,-63,-59,-64,-61,-59,-65
2023-12-08 00:45:06,-58,-62,-61,-60,-66,-60,-63,-62,-58,-65,-60,-61,-64,-58,-64,-59
2023-12-08 00:45:06,-59,-61,-59,-65,-64,-59,-64,-54,-62,-61,-59,-65,-61,-63,-62,-58
2023-12-08 00:45:07,-64,-63,-63,-64,-59,-65,-63,-62,-68,-60,-62,-60,-59,-66,-61,-64
2023-12-08 00:45:07,-64,-58,-64,-58,-60,-63,-61,-69,-62,-64,-67,-61,-65,-64,-62,-66
2023-12-08 00:45:07,-59,-63,-64,-61,-66,-60,-63,-63,-57,-65,-61,-62,-65,-61,-66,-62
2023-12-08 00:45:07,-62,-67,-61,-65,-62,-62,-67,-60,-64,-62,-57,-65,-59,-62,-62,-56
2023-12-08 00:45:07,-63,-60,-62,-62,-58,-64,-60,-58,-63,-57,-63,-63,-60,-64,-58,-63
2023-12-08 00:45:07,-63,-57,-65,-60,-61,-61,-57,-65,-60,-62,-64,-60,-64,-64,-62,-67
2023-12-08 00:45:07,-58,-62,-64,-60,-66,-61,-63,-63,-54,-61,-56,-61,-62,-59,-62,-56
2023-12-08 00:45:07,-57,-63,-58,-63,-63,-60,-64,-59,-62,-62,-62,-65,-59,-60,-63,-56
2023-12-08 00:45:07,-64,-57,-59,-60,-59,-63,-61,-59,-65,-58,-66,-61,-62,-66,-62,-65
2023-12-08 00:45:08,-63,-58,-64,-59,-60,-62,-57,-64,-58,-59,-60,-57,-62,-61,-58,-62
2023-12-08 00:45:08,-57,-60,-59,-58,-64,-57,-62,-61,-58,-64,-61,-63,-66,-62,-67,-62
2023-12-08 00:45:08,-62,-66,-62,-66,-63,-59,-65,-56,-61,-60,-58,-64,-58,-60,-61,-57
2023-12-08 00:45:08,-65,-60,-60,-64,-60,-66,-62,-59,-65,-57,-63,-61,-62,-67,-60,-61
2023-12-08 00:45:08,-61,-55,-64,-59,-60,-62,-59,-63,-59,-60,-63,-60,-65,-64,-61,-67
2023-12-08 00:45:08,-59,-62,-61,-60,-65,-60,-62,-62,-56,-64,-60,-62,-63,-59,-65,-61
2023-12-08 00:45:08,-61,-66,-59,-64,-63,-61,-65,-57,-63,-64,-61,-67,-63,-65,-62,-58
2023-12-08 00:45:08,-63,-62,-65,-65,-61,-66,-62,-62,-65,-60,-63,-62,-60,-66,-58,-64
2023-12-08 00:45:08,-64,-57,-65,-59,-61,-61,-57,-65,-61,-62,-64,-61,-66,-64,-61,-65
2023-12-08 00:45:08,-59,-62,-59,-56,-62,-60,-63,-60,-54,-60,-58,-61,-62,-57,-64,-60
2023-12-08 00:45:08,-63,-66,-60,-62,-61,-61,-65,-58,-63,-63,-60,-66,-59,-60,-59,-56
2023-12-08 00:45:09,-64,-62,-63,-65,-59,-67,-61,-62,-66,-60,-62,-59,-58,-65,-58,-64
2023-12-08 00:45:09,-62,-59,-64,-58,-60,-61,-59,-67,-62,-62,-65,-62,-67,-63,-61,-65
2023-12-08 00:45:09,-60,-66,-64,-63,-67,-63,-67,-65,-59,-63,-60,-63,-65,-60,-66,-61
2023-12-08 00:45:09,-62,-65,-61,-67,-65,-63,-64,-57,-61,-60,-59,-65,-59,-63,-61,-59
2023-12-08 00:45:09,-66,-62,-64,-64,-60,-66,-61,-60,-63,-56,-61,-60,-59,-65,-59,-65
2023-12-08 00:45:09,-66,-61,-66,-59,-61,-61,-58,-65,-62,-64,-65,-59,-63,-60,-60,-64
2023-12-08 00:45:09,-59,-62,-60,-59,-64,-56,-64,-63,-59,-65,-60,-60,-62,-58,-67,-62
2023-12-08 00:45:09,-64,-66,-61,-66,-66,-64,-67,-60,-64,-65,-63,-68,-61,-65,-64,-60
2023-12-08 00:45:09,-67,-63,-62,-66,-60,-68,-62,-62,-66,-61,-64,-62,-61,-68,-63,-67
2023-12-08 00:45:09,-66,-60,-67,-61,-63,-62,-57,-66,-63,-62,-62,-58,-64,-62,-59,-65
2023-12-08 00:45:09,-58,-63,-61,-60,-65,-59,-63,-64,-57,-64,-57,-59,-62,-59,-66,-60
2023-12-08 00:45:10,-61,-64,-58,-64,-62,-61,-62,-56,-59,-63,-62,-66,-57,-61,-61,-59
2023-12-08 00:45:10,-66,-63,-63,-65,-57,-64,-60,-62,-68,-59,-64,-62,-63,-67,-62,-62
2023-12-08 00:45:10,-63,-58,-67,-59,-61,-61,-58,-65,-60,-60,-62,-58,-65,-62,-62,-66
2023-12-08 00:45:10,-58,-61,-59,-59,-65,-61,-66,-66,-62,-67,-61,-62,-63,-58,-67,-60
2023-12-08 00:45:10,-63,-65,-62,-66,-64,-62,-65,-58,-62,-61,-61,-67,-61,-65,-65,-60
2023-12-08 00:45:10,-67,-61,-62,-63,-59,-68,-63,-62,-64,-55,-61,-61,-60,-65,-59,-64
2023-12-08 00:45:10,-65,-61,-67,-60,-64,-62,-58,-67,-63,-63,-64,-59,-64,-61,-60,-64
2023-12-08 00:45:10,-57,-64,-62,-63,-66,-60,-62,-63,-58,-63,-59,-61,-63,-59,-64,-60
2023-12-08 00:45:10,-62,-65,-60,-64,-62,-61,-67,-59,-61,-60,-59,-67,-60,-63,-62,-58
2023-12-08 00:45:10,-64,-61,-62,-65,-60,-68,-62,-62,-64,-57,-62,-62,-63,-66,-59,-61
2023-12-08 00:45:10,-63,-62,-67,-60,-63,-62,-59,-67,-63,-62,-64,-58,-66,-62,-61,-65
2023-12-08 00:45:11,-60,-64,-61,-60,-66,-57,-63,-62,-58,-65,-62,-64,-63,-57,-66,-61
2023-12-08 00:45:11,-64,-66,-63,-68,-64,-60,-64,-58,-63,-62,-63,-65,-59,-64,-64,-59
2023-12-08 00:45:11,-65,-61,-64,-66,-58,-64,-60,-60,-63,-57,-63,-63,-61,-66,-60,-62
2023-12-08 00:45:11,-63,-58,-64,-60,-64,-63,-56,-61,-58,-61,-62,-57,-62,-56,-58,-62
2023-12-08 00:45:11,-53,-60,-61,-60,-65,-57,-62,-62,-59,-66,-63,-64,-63,-57,-65,-62
2023-12-08 00:45:11,-64,-66,-62,-67,-64,-62,-64,-57,-63,-61,-63,-66,-61,-63,-62,-56
2023-12-08 00:45:11,-65,-61,-62,-60,-57,-65,-62,-63,-66,-59,-65,-64,-62,-66,-59,-63
2023-12-08 00:45:11,-64,-60,-66,-61,-65,-63,-58,-65,-64,-64,-65,-60,-66,-61,-60,-65
2023-12-08 00:45:11,-59,-64,-62,-61,-66,-60,-64,-65,-60,-68,-62,-66,-63,-58,-66,-64
2023-12-08 00:45:11,-65,-66,-59,-65,-62,-61,-66,-60,-63,-61,-61,-67,-62,-65,-63,-58
2023-12-08 00:45:11,-63,-60,-62,-63,-60,-65,-62,-65,-66,-62,-65,-63,-61,-68,-60,-64
2023-12-08 00:45:12,-64,-62,-66,-58,-63,-64,-61,-67,-64,-65,-66,-61,-66,-62,-64,-67
2023-12-08 00:45:12,-61,-64,-61,-61,-66,-58,-62,-64,-60,-67,-59,-63,-63,-58,-66,-59
2023-12-08 00:45:12,-61,-63,-61,-65,-62,-61,-68,-60,-65,-60,-61,-65,-62,-65,-64,-58
2023-12-08 00:45:12,-66,-58,-64,-63,-60,-68,-64,-66,-68,-60,-65,-62,-62,-67,-59,-64
2023-12-08 00:45:12,-61,-60,-67,-61,-67,-67,-62,-66,-61,-62,-64,-60,-65,-62,-66,-68
2023-12-08 00:45:12,-62,-65,-62,-62,-67,-58,-62,-62,-60,-66,-61,-67,-64,-60,-65,-62
2023-12-08 00:45:12,-64,-66,-60,-66,-63,-63,-68,-61,-65,-62,-63,-67,-61,-64,-65,-60
2023-12-08 00:45:12,-67,-62,-64,-64,-60,-66,-62,-64,-67,-64,-67,-64,-61,-67,-59,-63
2023-12-08 00:45:12,-62,-61,-66,-59,-65,-66,-60,-65,-60,-62,-65,-58,-65,-60,-62,-64
2023-12-08 00:45:12,-60,-66,-65,-63,-67,-59,-62,-64,-61,-68,-62,-65,-65,-58,-67,-63
2023-12-08 00:45:13,-62,-66,-59,-67,-62,-63,-64,-57,-63,-64,-63,-67,-59,-62,-64,-61
2023-12-08 00:45:13,-66,-58,-63,-63,-59,-68,-64,-65,-67,-60,-65,-60,-59,-65,-60,-63
2023-12-08 00:45:13,-61,-61,-66,-60,-65,-63,-59,-65,-62,-65,-63,-59,-64,-61,-64,-64
2023-12-08 00:45:13,-62,-65,-64,-62,-66,-59,-61,-60,-59,-65,-59,-64,-65,-58,-65,-62
2023-12-08 00:45:13,-63,-66,-61,-65,-60,-62,-67,-59,-63,-61,-61,-67,-59,-63,-63,-58
2023-12-08 00:45:13,-68,-63,-67,-64,-59,-63,-63,-66,-67,-61,-64,-60,-60,-65,-58,-63
2023-12-08 00:45:13,-62,-61,-66,-60,-63,-63,-57,-66,-62,-61,-62,-56,-64,-61,-64,-66
2023-12-08 00:45:13,-61,-64,-62,-60,-65,-55,-61,-60,-63,-69,-63,-64,-60,-56,-63,-58
2023-12-08 00:45:13,-63,-61,-58,-64,-61,-63,-68,-60,-65,-62,-61,-65,-58,-63,-63,-60
2023-12-08 00:45:13,-66,-60,-64,-63,-59,-67,-65,-65,-66,-61,-66,-62,-61,-67,-62,-65
2023-12-08 00:45:13,-62,-61,-66,-61,-66,-67,-61,-66,-60,-63,-61,-57,-64,-60,-62,-64
2023-12-08 00:45:14,-61,-66,-64,-63,-66,-60,-60,-61,-59,-66,-59,-65,-66,-61,-66,-61
2023-12-08 00:45:14,-63,-66,-59,-67,-60,-62,-66,-61,-66,-64,-63,-66,-59,-62,-62,-59
2023-12-08 00:45:14,-66,-59,-65,-65,-60,-66,-61,-63,-65,-62,-69,-64,-63,-67,-60,-67
2023-12-08 00:45:14,-63,-61,-65,-57,-61,-60,-57,-65,-60,-62,-62,-59,-66,-63,-64,-64
2023-12-08 00:45:14,-59,-65,-62,-60,-64,-59,-63,-63,-61,-65,-58,-62,-61,-57,-63,-60
2023-12-08 00:45:14,-63,-63,-59,-65,-62,-64,-66,-60,-65,-62,-62,-66,-59,-62,-63,-61
2023-12-08 00:45:14,-68,-60,-64,-64,-59,-65,-61,-62,-64,-58,-64,-62,-64,-67,-59,-64
2023-12-08 00:45:14,-64,-63,-68,-60,-64,-65,-60,-67,-60,-62,-62,-58,-67,-62,-62,-63
2023-12-08 00:45:14,-60,-67,-63,-60,-63,-57,-64,-64,-62,-64,-57,-62,-62,-57,-63,-57
2023-12-08 00:45:14,-60,-61,-59,-66,-61,-63,-64,-60,-65,-63,-62,-65,-59,-60,-60,-58
2023-12-08 00:45:14,-64,-58,-63,-64,-60,-65,-61,-61,-65,-61,-66,-60,-61,-65,-61,-67
2023-12-08 00:45:15,-65,-61,-66,-60,-64,-63,-61,-66,-62,-64,-63,-58,-66,-63,-64,-65
2023-12-08 00:45:15,-59,-63,-60,-61,-67,-60,-64,-61,-61,-66,-59,-63,-63,-57,-66,-61
2023-12-08 00:45:15,-61,-61,-59,-65,-62,-63,-64,-61,-64,-61,-61,-66,-59,-63,-61,-61
2023-12-08 00:45:15,-66,-59,-66,-66,-59,-65,-60,-62,-64,-60,-64,-59,-60,-63,-59,-65
2023-12-08 00:45:15,-64,-62,-67,-60,-61,-61,-59,-65,-58,-63,-63,-61,-67,-61,-61,-64
2023-12-08 00:45:15,-61,-68,-62,-60,-64,-60,-66,-63,-62,-66,-62,-63,-63,-57,-64,-60
2023-12-08 00:45:15,-62,-61,-59,-64,-60,-61,-66,-63,-67,-61,-59,-62,-59,-63,-61,-62
2023-12-08 00:45:15,-65,-61,-63,-62,-57,-64,-62,-63,-65,-61,-67,-63,-65,-70,-63,-68
2023-12-08 00:45:15,-62,-61,-66,-59,-62,-63,-61,-67,-60,-62,-62,-57,-65,-61,-64,-65
2023-12-08 00:45:15,-62,-69,-63,-62,-66,-59,-63,-63,-61,-64,-58,-62,-62,-61,-66,-62
2023-12-08 00:45:15,-63,-63,-57,-63,-60,-62,-63,-59,-64,-61,-59,-64,-58,-61,-61,-58
2023-12-08 00:45:16,-63,-55,-61,-62,-61,-66,-59,-61,-60,-57,-63,-59,-62,-65,-61,-65
2023-12-08 00:45:16,-63,-59,-63,-57,-61,-61,-60,-65,-59,-63,-63,-60,-67,-63,-63,-67
2023-12-08 00:45:16,-60,-65,-61,-63,-67,-60,-65,-63,-64,-68,-59,-64,-65,-60,-65,-59
2023-12-08 00:45:16,-65,-65,-61,-66,-62,-65,-67,-61,-65,-60,-59,-63,-59,-63,-62,-59
2023-12-08 00:45:16,-65,-59,-66,-66,-61,-68,-62,-66,-64,-61,-68,-63,-65,-67,-60,-66
2023-12-08 00:45:16,-63,-62,-67,-59,-62,-61,-58,-66,-60,-66,-65,-60,-65,-60,-61,-64
2023-12-08 00:45:16,-61,-68,-59,-61,-65,-60,-65,-64,-64,-67,-60,-63,-61,-60,-66,-62
2023-12-08 00:45:16,-66,-64,-60,-68,-63,-64,-65,-60,-67,-64,-62,-66,-61,-64,-61,-58
2023-12-08 00:45:16,-64,-58,-62,-61,-59,-65,-61,-62,-63,-58,-66,-61,-64,-68,-61,-65
2023-12-08 00:45:16,-62,-62,-66,-58,-60,-61,-59,-67,-59,-63,-64,-58,-66,-63,-64,-68
2023-12-08 00:45:16,-60,-68,-61,-62,-65,-58,-62,-63,-62,-66,-58,-63,-63,-61,-67,-62
2023-12-08 00:45:17,-65,-64,-59,-65,-61,-62,-64,-61,-68,-62,-62,-66,-60,-67,-64,-65
2023-12-08 00:45:17,-68,-60,-64,-65,-61,-66,-61,-63,-63,-57,-65,-60,-61,-62,-60,-69
2023-12-08 00:45:17,-66,-64,-68,-60,-67,-62,-60,-65,-59,-65,-64,-59,-67,-62,-64,-64
2023-12-08 00:45:17,-61,-67,-62,-64,-67,-62,-67,-65,-62,-68,-60,-63,-65,-59,-66,-60
2023-12-08 00:45:17,-65,-63,-59,-68,-64,-63,-65,-61,-66,-64,-63,-67,-60,-66,-62,-62
2023-12-08 00:45:17,-68,-62,-65,-65,-61,-68,-65,-65,-64,-59,-66,-62,-64,-65,-62,-66
2023-12-08 00:45:17,-63,-61,-64,-59,-65,-62,-63,-67,-61,-65,-63,-58,-64,-59,-62,-64
2023-12-08 00:45:17,-59,-66,-59,-62,-65,-60,-66,-66,-63,-67,-60,-62,-63,-61,-68,-61
2023-12-08 00:45:17,-64,-62,-58,-65,-63,-64,-67,-59,-66,-62,-63,-66,-60,-65,-64,-63
2023-12-08 00:45:17,-66,-56,-59,-61,-60,-68,-61,-63,-63,-60,-66,-63,-65,-67,-60,-66
2023-12-08 00:45:18,-62,-62,-68,-62,-65,-61,-61,-65,-59,-64,-64,-59,-66,-62,-64,-64
2023-12-08 00:45:18,-59,-66,-60,-63,-65,-61,-67,-65,-63,-66,-58,-62,-62,-59,-65,-59
2023-12-08 00:45:18,-63,-63,-59,-64,-62,-62,-65,-61,-66,-60,-62,-65,-59,-66,-62,-63
2023-12-08 00:45:18,-67,-60,-62,-61,-57,-65,-60,-65,-63,-58,-63,-60,-62,-62,-60,-66
2023-12-08 00:45:18,-62,-62,-67,-60,-66,-61,-60,-65,-61,-66,-65,-59,-65,-60,-63,-63
2023-12-08 00:45:18,-60,-67,-60,-61,-65,-62,-68,-65,-62,-65,-59,-64,-62,-61,-65,-60
2023-12-08 00:45:18,-65,-64,-59,-64,-59,-60,-64,-58,-67,-60,-62,-65,-62,-66,-65,-62
2023-12-08 00:45:18,-67,-58,-62,-61,-59,-66,-58,-64,-64,-60,-67,-62,-61,-64,-60,-69
2023-12-08 00:45:18,-65,-65,-69,-65,-70,-70,-68,-72,-65,-69,-69,-63,-65,-59,-61,-64
2023-12-08 00:45:18,-58,-63,-59,-59,-64,-56,-64,-58,-56,-58,-51,-57,-59,-58,-64,-57
2023-12-08 00:45:18,-59,-59,-57,-65,-59,-61,-62,-56,-68,-63,-65,-69,-62,-67,-67,-65
2023-12-08 00:45:19,-72,-64,-68,-71,-70,-78,-70,-73,-75,-72,-82,-76,-77,-77,-71,-78
2023-12-08 00:45:19,-72,-73,-77,-70,-74,-70,-66,-74,-63,-68,-68,-62,-67,-61,-65,-66
2023-12-08 00:45:19,-58,-65,-62,-62,-65,-54,-62,-57,-58,-60,-54,-60,-59,-55,-61,-54
2023-12-08 00:45:19,-57,-57,-52,-60,-57,-60,-63,-57,-66,-60,-61,-63,-56,-63,-59,-59
2023-12-08 00:45:19,-63,-56,-60,-60,-57,-66,-58,-62,-61,-57,-64,-59,-63,-66,-61,-66
2023-12-08 00:45:19,-63,-63,-66,-59,-63,-61,-60,-65,-58,-63,-63,-59,-64,-60,-62,-62
2023-12-08 00:45:19,-57,-66,-62,-64,-65,-60,-68,-65,-64,-67,-59,-64,-63,-63,-67,-61
2023-12-08 00:45:19,-63,-65,-61,-68,-62,-63,-64,-59,-67,-60,-59,-61,-57,-63,-61,-58
2023-12-08 00:45:19,-63,-56,-60,-59,-58,-60,-55,-58,-58,-57,-62,-59,-61,-62,-60,-65
2023-12-08 00:45:19,-59,-59,-63,-57,-63,-61,-60,-63,-57,-61,-62,-59,-66,-58,-61,-62
2023-12-08 00:45:19,-54,-61,-53,-53,-53,-46,-52,-51,-49,-53,-48,-52,-51,-49,-54,-48
2023-12-08 00:45:20,-54,-54,-52,-59,-54,-58,-60,-56,-63,-59,-64,-68,-63,-67,-65,-63
2023-12-08 00:45:20,-70,-62,-68,-67,-66,-70,-63,-66,-65,-60,-68,-64,-66,-66,-61,-66
2023-12-08 00:45:20,-62,-63,-67,-56,-61,-61,-61,-66,-57,-59,-62,-60,-68,-61,-64,-63
2023-12-08 00:45:20,-59,-65,-63,-64,-65,-57,-64,-60,-61,-66,-58,-63,-62,-59,-65,-57
2023-12-08 00:45:20,-64,-62,-58,-63,-60,-64,-65,-59,-66,-60,-60,-63,-56,-65,-59,-58
2023-12-08 00:45:20,-64,-58,-65,-64,-63,-70,-63,-65,-64,-60,-68,-63,-66,-65,-61,-69
2023-12-08 00:45:20,-65,-64,-70,-60,-64,-62,-61,-68,-62,-66,-67,-64,-69,-62,-65,-63
2023-12-08 00:45:20,-59,-67,-61,-63,-63,-58,-66,-65,-64,-67,-58,-65,-63,-63,-65,-59
2023-12-08 00:45:20,-62,-60,-57,-63,-60,-66,-63,-57,-64,-62,-63,-65,-57,-66,-64,-66
2023-12-08 00:45:20,-70,-63,-66,-65,-64,-68,-62,-64,-65,-62,-68,-63,-65,-66,-60,-68
2023-12-08 00:45:20,-64,-64,-68,-59,-65,-62,-60,-68,-61,-66,-66,-63,-69,-65,-68,-66
2023-12-08 00:45:21,-62,-68,-65,-65,-64,-55,-62,-61,-61,-64,-57,-62,-61,-62,-67,-61
2023-12-08 00:45:21,-63,-61,-56,-63,-57,-63,-63,-58,-63,-57,-54,-56,-45,-52,-44,-43
2023-12-08 00:45:21,-44,-39,-45,-45,-48,-55,-49,-52,-51,-47,-53,-47,-51,-55,-52,-58
2023-12-08 00:45:21,-56,-56,-61,-56,-66,-64,-65,-67,-60,-63,-61,-59,-65,-61,-69,-68
2023-12-08 00:45:21,-63,-70,-66,-71,-73,-68,-75,-70,-67,-71,-64,-70,-72,-70,-76,-67
2023-12-08 00:45:21,-72,-70,-66,-72,-68,-71,-71,-65,-72,-67,-69,-71,-66,-73,-70,-67
2023-12-08 00:45:21,-71,-64,-68,-67,-65,-68,-62,-68,-69,-65,-69,-63,-66,-68,-63,-69
2023-12-08 00:45:21,-64,-64,-67,-56,-63,-62,-64,-68,-59,-63,-64,-61,-66,-61,-65,-65
2023-12-08 00:45:21,-60,-67,-64,-66,-66,-60,-69,-66,-67,-68,-57,-62,-60,-58,-64,-59
2023-12-08 00:45:21,-63,-63,-59,-65,-58,-63,-61,-59,-67,-65,-66,-66,-60,-68,-65,-65
2023-12-08 00:45:22,-69,-61,-66,-65,-61,-66,-60,-65,-66,-63,-68,-65,-69,-70,-64,-73
2023-12-08 00:45:22,-66,-67,-68,-61,-68,-64,-63,-67,-58,-64,-65,-62,-66,-60,-66,-65
2023-12-08 00:45:22,-60,-67,-62,-65,-66,-61,-68,-64,-64,-67,-60,-66,-68,-65,-72,-62
2023-12-08 00:45:22,-68,-68,-63,-66,-60,-63,-63,-61,-66,-62,-64,-67,-62,-69,-65,-66
2023-12-08 00:45:22,-73,-62,-68,-65,-66,-73,-64,-69,-70,-65,-72,-67,-68,-69,-62,-70
2023-12-08 00:45:22,-63,-63,-65,-59,-65,-63,-61,-66,-57,-63,-64,-61,-65,-60,-65,-65
2023-12-08 00:45:22,-62,-69,-63,-65,-64,-60,-69,-65,-66,-71,-62,-67,-64,-61,-69,-60
2023-12-08 00:45:22,-66,-65,-59,-65,-59,-64,-65,-60,-63,-59,-63,-66,-58,-66,-62,-62
2023-12-08 00:45:22,-65,-53,-61,-60,-60,-63,-59,-61,-62,-59,-64,-59,-63,-62,-56,-64
2023-12-08 00:45:22,-60,-61,-66,-56,-65,-59,-59,-65,-58,-66,-65,-60,-67,-60,-66,-64
2023-12-08 00:45:22,-60,-65,-61,-65,-68,-58,-67,-61,-62,-67,-60,-67,-63,-60,-65,-60
2023-12-08 00:45:23,-65,-64,-59,-66,-61,-65,-64,-58,-64,-60,-63,-65,-60,-68,-64,-62
2023-12-08 00:45:23,-65,-56,-63,-62,-61,-65,-58,-63,-63,-59,-64,-59,-65,-66,-60,-67
2023-12-08 00:45:23,-61,-64,-67,-58,-67,-61,-61,-66,-57,-64,-64,-62,-68,-62,-66,-64
2023-12-08 00:45:23,-60,-66,-62,-64,-63,-56,-65,-63,-63,-67,-58,-65,-62,-62,-67,-57
2023-12-08 00:45:23,-62,-62,-61,-69,-62,-66,-65,-60,-66,-59,-63,-66,-61,-69,-63,-62
2023-12-08 00:45:23,-66,-54,-62,-61,-62,-67,-60,-63,-60,-57,-64,-60,-65,-64,-57,-66
2023-12-08 00:45:23,-61,-65,-67,-61,-67,-63,-61,-66,-56,-62,-61,-58,-63,-59,-61,-63
2023-12-08 00:45:23,-59,-66,-62,-63,-64,-59,-68,-62,-65,-67,-58,-64,-64,-63,-69,-62
2023-12-08 00:45:23,-65,-61,-58,-64,-60,-66,-63,-58,-64,-60,-62,-66,-59,-67,-62,-62
2023-12-08 00:45:23,-67,-60,-65,-63,-63,-66,-61,-63,-62,-58,-65,-60,-64,-62,-58,-66
2023-12-08 00:45:23,-63,-64,-66,-56,-64,-63,-61,-67,-59,-64,-63,-62,-68,-60,-63,-63
2023-12-08 00:45:24,-59,-67,-61,-64,-64,-58,-66,-63,-64,-68,-59,-64,-61,-62,-66,-59
2023-12-08 00:45:24,-61,-63,-60,-69,-61,-65,-62,-58,-65,-62,-63,-68,-60,-68,-61,-63
2023-12-08 00:45:24,-67,-60,-65,-63,-60,-64,-59,-63,-65,-59,-65,-59,-64,-63,-58,-64
2023-12-08 00:45:24,-60,-63,-65,-58,-66,-59,-61,-66,-59,-67,-66,-62,-66,-61,-65,-66
2023-12-08 00:45:24,-62,-67,-64,-66,-67,-63,-70,-63,-64,-66,-58,-64,-63,-62,-67,-59
2023-12-08 00:45:24,-62,-64,-61,-68,-60,-64,-62,-58,-67,-63,-65,-65,-60,-66,-64,-63
2023-12-08 00:45:24,-67,-58,-67,-64,-62,-63,-56,-62,-65,-62,-66,-59,-63,-63,-59,-67
2023-12-08 00:45:24,-63,-66,-67,-59,-66,-63,-62,-67,-57,-65,-61,-59,-64,-60,-65,-64
2023-12-08 00:45:24,-58,-65,-61,-65,-64,-58,-67,-63,-64,-67,-60,-66,-63,-63,-67,-60
2023-12-08 00:45:24,-65,-64,-59,-66,-61,-67,-64,-58,-64,-62,-63,-65,-59,-67,-64,-62
2023-12-08 00:45:24,-65,-57,-64,-62,-63,-66,-61,-64,-64,-59,-65,-59,-63,-60,-57,-64
2023-12-08 00:45:25,-60,-61,-63,-56,-65,-61,-60,-62,-55,-62,-63,-61,-66,-60,-64,-63
2023-12-08 00:45:25,-57,-63,-59,-64,-67,-61,-69,-65,-67,-70,-59,-67,-63,-63,-67,-60
2023-12-08 00:45:25,-64,-64,-60,-64,-58,-61,-63,-62,-66,-63,-63,-65,-56,-64,-62,-63
2023-12-08 00:45:25,-66,-59,-63,-62,-63,-65,-58,-63,-64,-60,-68,-60,-63,-62,-57,-65
2023-12-08 00:45:25,-60,-63,-66,-58,-66,-60,-59,-63,-56,-62,-62,-57,-63,-58,-63,-64
2023-12-08 00:45:25,-60,-65,-62,-63,-64,-59,-66,-62,-62,-66,-58,-66,-60,-59,-63,-57
2023-12-08 00:45:25,-64,-63,-58,-65,-61,-67,-66,-61,-65,-60,-62,-64,-57,-67,-62,-62
2023-12-08 00:45:25,-66,-56,-62,-61,-62,-66,-60,-63,-63,-59,-65,-61,-64,-63,-58,-67
2023-12-08 00:45:25,-64,-65,-64,-57,-65,-64,-64,-66,-60,-65,-63,-62,-66,-60,-62,-62
2023-12-08 00:45:25,-58,-65,-61,-62,-64,-57,-67,-61,-62,-64,-58,-65,-62,-60,-65,-58
2023-12-08 00:45:26,-63,-63,-61,-67,-60,-65,-65,-60,-65,-58,-61,-64,-58,-67,-61,-62
2023-12-08 00:45:26,-67,-60,-65,-62,-60,-67,-60,-65,-64,-58,-64,-57,-61,-61,-57,-63
2023-12-08 00:45:26,-61,-60,-62,-55,-64,-61,-63,-65,-59,-66,-63,-62,-66,-60,-65,-64
2023-12-08 00:45:26,-59,-65,-58,-61,-61,-58,-64,-62,-61,-67,-57,-66,-61,-60,-64,-58
2023-12-08 00:45:26,-65,-63,-60,-66,-61,-66,-64,-58,-65,-63,-65,-68,-64,-70,-65,-63
2023-12-08 00:45:26,-67,-60,-67,-65,-63,-67,-61,-66,-67,-62,-65,-60,-64,-64,-61,-66
2023-12-08 00:45:26,-59,-60,-63,-59,-67,-64,-62,-66,-59,-64,-62,-61,-65,-59,-63,-65
2023-12-08 00:45:26,-59,-66,-61,-62,-64,-58,-66,-60,-61,-66,-58,-67,-63,-62,-65,-59
2023-12-08 00:45:26,-63,-65,-61,-66,-60,-64,-64,-59,-65,-62,-64,-67,-57,-65,-62,-62
2023-12-08 00:45:26,-67,-58,-63,-63,-62,-69,-62,-66,-67,-62,-66,-60,-65,-65,-60,-66
2023-12-08 00:45:26,-61,-62,-65,-59,-65,-60,-59,-65,-59,-65,-61,-58,-63,-58,-62,-62
2023-12-08 00:45:27,-57,-63,-57,-60,-61,-55,-64,-60,-62,-65,-56,-65,-62,-60,-65,-59
2023-12-08 00:45:27,-64,-65,-62,-67,-59,-62,-61,-59,-65,-61,-62,-65,-59,-67,-61,-62
2023-12-08 00:45:27,-67,-56,-63,-59,-60,-66,-61,-63,-63,-57,-64,-56,-61,-60,-58,-64
2023-12-08 00:45:27,-62,-62,-65,-55,-64,-58,-58,-60,-56,-62,-62,-62,-65,-60,-63,-62
2023-12-08 00:45:27,-56,-62,-57,-61,-62,-57,-64,-60,-62,-65,-56,-65,-63,-61,-65,-58
2023-12-08 00:45:27,-62,-61,-59,-64,-58,-61,-60,-59,-66,-61,-64,-66,-63,-68,-65,-63
2023-12-08 00:45:27,-65,-57,-63,-63,-63,-66,-57,-60,-62,-58,-66,-60,-64,-62,-57,-65
2023-12-08 00:45:27,-61,-63,-65,-56,-63,-60,-61,-66,-59,-65,-61,-58,-63,-58,-62,-62
2023-12-08 00:45:27,-57,-63,-58,-63,-63,-59,-66,-62,-60,-65,-58,-65,-60,-58,-63,-56
2023-12-08 00:45:27,-62,-60,-57,-66,-60,-65,-63,-58,-66,-64,-66,-66,-59,-64,-61,-63
2023-12-08 00:45:27,-65,-59,-63,-63,-61,-66,-57,-62,-61,-58,-66,-59,-64,-62,-56,-63
2023-12-08 00:45:28,-58,-62,-65,-58,-66,-60,-60,-64,-56,-65,-62,-62,-66,-59,-62,-63
2023-12-08 00:45:28,-61,-66,-60,-62,-62,-57,-65,-61,-61,-63,-57,-63,-60,-58,-63,-56
2023-12-08 00:45:28,-62,-63,-62,-68,-61,-66,-65,-60,-66,-63,-64,-67,-57,-64,-59,-62
2023-12-08 00:45:28,-67,-60,-63,-61,-58,-65,-58,-62,-63,-59,-66,-57,-62,-59,-58,-65
2023-12-08 00:45:28,-61,-63,-66,-60,-68,-61,-61,-65,-58,-64,-62,-58,-63,-59,-63,-63
2023-12-08 00:45:28,-59,-64,-59,-63,-63,-58,-66,-63,-63,-67,-58,-65,-59,-58,-63,-57
2023-12-08 00:45:28,-63,-62,-57,-63,-57,-61,-62,-58,-63,-58,-61,-64,-58,-68,-62,-64
2023-12-08 00:45:28,-68,-57,-64,-61,-61,-67,-59,-62,-63,-60,-66,-59,-62,-59,-56,-63
2023-12-08 00:45:28,-61,-63,-65,-59,-68,-63,-64,-66,-59,-65,-64,-62,-68,-61,-66,-64
2023-12-08 00:45:28,-57,-65,-60,-65,-62,-58,-64,-61,-63,-65,-60,-67,-63,-62,-68,-62
2023-12-08 00:45:29,-66,-65,-61,-65,-59,-63,-63,-60,-62,-59,-60,-64,-57,-67,-59,-59
2023-12-08 00:45:29,-63,-57,-66,-64,-61,-64,-56,-62,-62,-58,-66,-61,-65,-63,-58,-66
2023-12-08 00:45:29,-62,-64,-65,-56,-67,-63,-62,-67,-57,-65,-62,-59,-63,-57,-61,-63
2023-12-08 00:45:29,-58,-66,-59,-65,-62,-58,-66,-59,-60,-62,-56,-65,-61,-61,-66,-59
2023-12-08 00:45:29,-66,-65,-60,-64,-59,-65,-64,-59,-63,-60,-60,-63,-55,-64,-60,-62
2023-12-08 00:45:29,-64,-56,-63,-61,-61,-66,-58,-61,-62,-57,-63,-59,-65,-65,-61,-65
2023-12-08 00:45:29,-61,-61,-64,-57,-66,-61,-61,-64,-57,-63,-62,-61,-64,-60,-62,-63
2023-12-08 00:45:29,-57,-65,-60,-62,-61,-59,-67,-63,-62,-64,-55,-64,-61,-60,-64,-58
2023-12-08 00:45:29,-65,-63,-60,-67,-60,-66,-63,-57,-64,-60,-63,-63,-58,-64,-62,-63
2023-12-08 00:45:29,-65,-57,-64,-61,-62,-68,-61,-63,-61,-56,-63,-60,-65,-63,-56,-62
2023-12-08 00:45:29,-59,-62,-65,-58,-67,-62,-61,-65,-55,-63,-62,-63,-66,-60,-61,-61
2023-12-08 00:45:30,-58,-65,-61,-63,-63,-59,-67,-62,-64,-67,-58,-64,-59,-58,-65,-58
2023-12-08 00:45:30,-64,-61,-61,-65,-59,-63,-62,-57,-63,-59,-61,-64,-57,-66,-61,-61
2023-12-08 00:45:30,-65,-58,-65,-62,-60,-64,-58,-63,-64,-58,-64,-57,-62,-61,-57,-64
2023-12-08 00:45:30,-59,-61,-64,-57,-66,-61,-62,-65,-60,-67,-65,-63,-67,-59,-62,-63
2023-12-08 00:45:30,-60,-66,-60,-62,-61,-58,-65,-61,-64,-65,-55,-63,-61,-61,-66,-56
2023-12-08 00:45:30,-65,-63,-62,-65,-58,-62,-62,-56,-63,-58,-62,-62,-56,-64,-61,-63
2023-12-08 00:45:30,-67,-59,-65,-61,-60,-65,-57,-63,-64,-59,-65,-59,-64,-63,-60,-65
2023-12-08 00:45:30,-61,-62,-65,-56,-67,-62,-63,-68,-57,-65,-64,-63,-66,-60,-63,-63
2023-12-08 00:45:30,-59,-65,-57,-62,-61,-57,-64,-61,-62,-66,-57,-64,-58,-59,-63,-56
2023-12-08 00:45:30,-62,-61,-56,-61,-55,-61,-60,-58,-63,-58,-61,-63,-57,-66,-62,-62
2023-12-08 00:45:30,-64,-55,-63,-62,-61,-65,-57,-63,-64,-57,-64,-58,-63,-63,-59,-65
2023-12-08 00:45:31,-62,-62,-65,-57,-65,-59,-61,-66,-58,-65,-63,-62,-67,-60,-62,-62
2023-12-08 00:45:31,-57,-65,-57,-64,-62,-56,-65,-62,-65,-67,-58,-65,-60,-61,-65,-56
2023-12-08 00:45:31,-64,-61,-61,-64,-60,-62,-63,-58,-66,-58,-61,-60,-55,-62,-59,-59
2023-12-08 00:45:31,-63,-56,-64,-60,-58,-63,-55,-62,-63,-58,-63,-56,-63,-63,-59,-63
2023-12-08 00:45:31,-59,-60,-62,-55,-64,-60,-63,-66,-59,-65,-61,-59,-64,-57,-60,-61
2023-12-08 00:45:31,-57,-65,-56,-60,-59,-57,-64,-63,-64,-68,-57,-65,-58,-58,-64,-58
2023-12-08 00:45:31,-64,-61,-60,-64,-58,-61,-60,-56,-65,-61,-64,-61,-54,-63,-59,-61
2023-12-08 00:45:31,-64,-56,-63,-60,-60,-64,-54,-59,-59,-58,-66,-58,-61,-61,-57,-63
2023-12-08 00:45:31,-57,-58,-60,-56,-65,-59,-60,-63,-55,-63,-61,-61,-66,-58,-62,-63
2023-12-08 00:45:31,-62,-67,-59,-63,-63,-59,-67,-59,-61,-62,-58,-66,-62,-61,-64,-55
2023-12-08 00:45:31,-63,-61,-60,-63,-58,-63,-63,-59,-64,-59,-62,-64,-58,-66,-62,-62
2023-12-08 00:45:32,-66,-59,-67,-62,-60,-64,-57,-62,-62,-58,-63,-57,-61,-62,-59,-63
2023-12-08 00:45:32,-59,-60,-63,-57,-64,-60,-61,-64,-58,-63,-62,-61,-70,-61,-67,-64
2023-12-08 00:45:32,-60,-64,-59,-62,-62,-57,-63,-60,-61,-63,-56,-65,-62,-61,-65,-60
2023-12-08 00:45:32,-66,-64,-60,-64,-58,-63,-63,-57,-63,-56,-61,-60,-57,-65,-61,-63
2023-12-08 00:45:32,-64,-55,-63,-61,-61,-65,-58,-64,-62,-60,-65,-58,-64,-64,-59,-64
2023-12-08 00:45:32,-58,-62,-65,-57,-65,-60,-62,-64,-54,-60,-59,-59,-65,-57,-62,-63
2023-12-08 00:45:32,-58,-64,-58,-63,-63,-59,-64,-58,-61,-65,-58,-66,-61,-61,-66,-56
2023-12-08 00:45:32,-65,-62,-60,-63,-58,-62,-63,-57,-64,-55,-60,-59,-54,-64,-60,-61
2023-12-08 00:45:32,-63,-56,-64,-61,-58,-63,-55,-64,-62,-60,-61,-55,-60,-61,-58,-63
2023-12-08 00:45:32,-56,-60,-62,-56,-65,-59,-62,-65,-57,-65,-64,-62,-65,-57,-63,-63
2023-12-08 00:45:32,-61,-67,-61,-67,-64,-59,-65,-62,-65,-66,-60,-66,-60,-61,-65,-58
2023-12-08 00:45:33,-64,-61,-59,-65,-58,-61,-62,-58,-67,-60,-62,-60,-55,-64,-60,-60
2023-12-08 00:45:33,-62,-58,-66,-64,-60,-61,-55,-63,-62,-62,-65,-61,-65,-65,-59,-65
2023-12-08 00:45:33,-60,-63,-66,-60,-67,-61,-61,-66,-57,-66,-62,-61,-65,-58,-62,-61
2023-12-08 00:45:33,-57,-63,-56,-62,-62,-59,-65,-62,-62,-63,-56,-65,-60,-61,-64,-56
2023-12-08 00:45:33,-63,-60,-59,-64,-58,-62,-61,-57,-66,-60,-65,-61,-59,-68,-63,-64
2023-12-08 00:45:33,-67,-59,-68,-63,-62,-66,-59,-67,-65,-63,-66,-61,-65,-64,-61,-66
2023-12-08 00:45:33,-62,-64,-63,-57,-65,-61,-62,-67,-60,-68,-63,-61,-64,-55,-61,-63
2023-12-08 00:45:33,-60,-65,-58,-62,-62,-60,-66,-61,-62,-64,-59,-66,-60,-62,-65,-57
2023-12-08 00:45:33,-63,-60,-60,-66,-59,-60,-60,-57,-66,-60,-64,-62,-57,-64,-60,-64
2023-12-08 00:45:33,-65,-57,-64,-60,-60,-64,-57,-63,-60,-59,-65,-60,-63,-61,-58,-64
2023-12-08 00:45:34,-61,-62,-62,-55,-66,-61,-63,-65,-58,-66,-62,-60,-64,-57,-64,-62
2023-12-08 00:45:34,-57,-63,-59,-64,-62,-55,-62,-59,-63,-63,-57,-63,-61,-61,-65,-59
2023-12-08 00:45:34,-64,-60,-60,-66,-59,-63,-64,-62,-67,-61,-62,-62,-58,-65,-59,-61
2023-12-08 00:45:34,-63,-59,-68,-64,-62,-66,-57,-65,-63,-63,-67,-59,-64,-63,-59,-66
2023-12-08 00:45:34,-59,-63,-62,-56,-64,-60,-62,-65,-55,-63,-60,-61,-65,-57,-63,-62
2023-12-08 00:45:34,-58,-64,-58,-65,-66,-60,-66,-60,-64,-64,-60,-66,-60,-59,-64,-58
2023-12-08 00:45:34,-68,-64,-62,-64,-57,-60,-61,-59,-67,-59,-64,-63,-60,-65,-60,-64
2023-12-08 00:45:34,-67,-60,-66,-61,-61,-67,-58,-64,-62,-60,-64,-60,-63,-62,-57,-64
2023-12-08 00:45:34,-60,-61,-62,-58,-66,-61,-62,-65,-57,-66,-63,-61,-65,-58,-65,-65
2023-12-08 00:45:34,-61,-65,-58,-65,-64,-59,-62,-59,-61,-64,-56,-64,-60,-60,-65,-57
2023-12-08 00:45:34,-63,-62,-59,-64,-56,-61,-63,-54,-61,-56,-65,-65,-59,-64,-61,-62
2023-12-08 00:45:35,-64,-55,-63,-57,-58,-60,-56,-63,-61,-61,-65,-59,-61,-59,-57,-66
2023-12-08 00:45:35,-61,-63,-60,-57,-65,-62,-63,-63,-56,-64,-61,-59,-62,-55,-62,-59
2023-12-08 00:45:35,-59,-65,-58,-62,-61,-57,-65,-60,-62,-62,-59,-65,-59,-59,-64,-59
2023-12-08 00:45:35,-64,-62,-58,-64,-58,-65,-64,-57,-63,-58,-63,-62,-57,-62,-60,-61
2023-12-08 00:45:35,-64,-58,-66,-62,-63,-66,-57,-62,-60,-60,-66,-61,-62,-62,-57,-62
2023-12-08 00:45:35,-57,-61,-60,-56,-64,-60,-62,-65,-56,-65,-60,-60,-64,-59,-66,-63
2023-12-08 00:45:35,-63,-67,-61,-66,-63,-57,-65,-60,-63,-64,-59,-66,-62,-63,-65,-55
2023-12-08 00:45:35,-65,-64,-61,-65,-55,-61,-63,-58,-62,-57,-63,-63,-58,-63,-60,-63
2023-12-08 00:45:35,-66,-62,-68,-64,-63,-66,-58,-65,-62,-61,-66,-60,-64,-64,-59,-66
2023-12-08 00:45:35,-61,-63,-63,-58,-67,-62,-62,-63,-56,-66,-64,-60,-65,-56,-63,-61
2023-12-08 00:45:35,-57,-64,-56,-59,-58,-54,-62,-59,-62,-62,-56,-65,-60,-61,-64,-58
2023-12-08 00:45:36,-65,-61,-59,-63,-58,-62,-59,-53,-62,-56,-64,-62,-58,-62,-60,-63
2023-12-08 00:45:36,-66,-58,-66,-62,-63,-67,-60,-67,-65,-64,-68,-59,-62,-64,-59,-68
2023-12-08 00:45:36,-60,-63,-59,-57,-64,-62,-62,-66,-57,-64,-59,-60,-65,-61,-65,-62
2023-12-08 00:45:36,-62,-66,-62,-63,-64,-59,-67,-61,-63,-62,-56,-64,-60,-63,-65,-56
2023-12-08 00:45:36,-66,-63,-62,-66,-59,-62,-62,-58,-64,-57,-62,-62,-59,-65,-60,-62
2023-12-08 00:45:36,-65,-58,-67,-62,-63,-67,-58,-62,-62,-61,-66,-59,-63,-62,-57,-65
2023-12-08 00:45:36,-59,-63,-61,-57,-65,-60,-61,-63,-56,-64,-60,-59,-64,-59,-64,-62
2023-12-08 00:45:36,-59,-64,-58,-63,-61,-56,-63,-61,-63,-65,-58,-66,-61,-61,-64,-57
2023-12-08 00:45:36,-66,-64,-61,-65,-56,-62,-63,-59,-65,-58,-63,-63,-59,-63,-61,-61
2023-12-08 00:45:36,-64,-55,-65,-60,-64,-68,-58,-64,-61,-58,-63,-55,-61,-61,-60,-65
2023-12-08 00:45:36,-58,-62,-62,-58,-65,-61,-63,-63,-56,-65,-61,-60,-65,-57,-63,-60
2023-12-08 00:45:37,-57,-62,-59,-63,-63,-56,-63,-60,-64,-63,-55,-66,-60,-61,-64,-59
2023-12-08 00:45:37,-66,-63,-59,-66,-59,-65,-64,-60,-66,-60,-63,-62,-59,-66,-62,-65
2023-12-08 00:45:37,-67,-60,-66,-61,-61,-65,-57,-65,-63,-64,-67,-60,-63,-65,-61,-67
2023-12-08 00:45:37,-60,-63,-60,-57,-65,-61,-62,-65,-57,-67,-62,-61,-65,-58,-65,-64
2023-12-08 00:45:37,-62,-68,-62,-67,-65,-60,-66,-60,-64,-61,-55,-65,-61,-61,-63,-56
2023-12-08 00:45:37,-65,-61,-59,-63,-58,-63,-61,-58,-64,-57,-62,-62,-59,-67,-62,-65
2023-12-08 00:45:37,-66,-61,-67,-64,-62,-68,-61,-68,-64,-61,-66,-61,-64,-62,-57,-66
2023-12-08 00:45:37,-60,-63,-61,-57,-65,-60,-62,-63,-58,-66,-62,-61,-65,-58,-62,-63
2023-12-08 00:45:37,-59,-67,-60,-64,-63,-58,-63,-57,-61,-63,-57,-64,-61,-62,-67,-58
2023-12-08 00:45:37,-65,-62,-61,-66,-59,-65,-65,-60,-64,-57,-61,-60,-55,-62,-59,-61
2023-12-08 00:45:38,-65,-60,-68,-63,-61,-66,-59,-66,-64,-62,-66,-57,-62,-63,-57,-64
2023-12-08 00:45:38,-59,-64,-63,-57,-65,-62,-64,-66,-58,-66,-63,-63,-66,-57,-63,-62
2023-12-08 00:45:38,-60,-65,-59,-63,-62,-59,-64,-61,-62,-65,-59,-66,-62,-61,-63,-54
2023-12-08 00:45:38,-64,-62,-60,-64,-56,-62,-64,-59,-65,-60,-64,-64,-61,-65,-61,-62
2023-12-08 00:45:38,-65,-61,-68,-62,-61,-66,-58,-65,-62,-62,-66,-59,-62,-63,-58,-67
2023-12-08 00:45:38,-58,-60,-60,-56,-63,-60,-59,-63,-55,-64,-60,-61,-63,-56,-62,-61
2023-12-08 00:45:38,-56,-63,-56,-60,-60,-55,-62,-57,-62,-62,-56,-65,-62,-62,-66,-58
2023-12-08 00:45:38,-65,-60,-59,-64,-57,-62,-62,-55,-61,-56,-62,-62,-58,-63,-58,-61
2023-12-08 00:45:38,-64,-56,-66,-62,-62,-67,-58,-63,-61,-60,-67,-61,-64,-61,-56,-63
2023-12-08 00:45:38,-58,-62,-61,-55,-62,-58,-60,-63,-58,-65,-61,-60,-63,-54,-61,-59
2023-12-08 00:45:39,-56,-62,-57,-60,-60,-59,-63,-56,-58,-61,-55,-63,-59,-61,-64,-57
2023-12-08 00:45:39,-64,-61,-60,-64,-56,-62,-61,-57,-62,-57,-65,-64,-61,-64,-62,-61
2023-12-08 00:45:39,-63,-57,-65,-60,-60,-62,-55,-61,-61,-61,-65,-59,-64,-63,-60,-65
2023-12-08 00:45:39,-58,-62,-63,-59,-65,-60,-62,-64,-55,-62,-58,-60,-64,-58,-63,-62
2023-12-08 00:45:39,-59,-64,-59,-65,-65,-59,-65,-59,-63,-63,-58,-65,-60,-63,-65,-56
2023-12-08 00:45:39,-64,-61,-62,-69,-60,-63,-65,-61,-65,-56,-61,-60,-57,-66,-62,-63
2023-12-08 00:45:39,-65,-59,-65,-59,-59,-65,-58,-65,-60,-58,-62,-56,-61,-62,-59,-65
2023-12-08 00:45:39,-57,-62,-62,-58,-66,-61,-63,-67,-57,-66,-60,-61,-63,-56,-61,-59
2023-12-08 00:45:39,-55,-61,-58,-61,-62,-58,-65,-61,-62,-63,-58,-67,-61,-59,-63,-56
2023-12-08 00:45:39,-64,-64,-58,-64,-57,-64,-61,-59,-66,-59,-63,-60,-57,-64,-63,-62
2023-12-08 00:45:40,-64,-56,-64,-59,-61,-65,-59,-66,-64,-63,-67,-59,-61,-63,-59,-67
2023-12-08 00:45:40,-58,-61,-61,-57,-62,-59,-61,-67,-60,-65,-59,-60,-63,-55,-61,-59
2023-12-08 00:45:40,-60,-65,-60,-64,-63,-59,-65,-61,-63,-65,-58,-64,-59,-59,-65,-57
2023-12-08 00:45:40,-65,-61,-60,-63,-57,-63,-64,-58,-64,-57,-62,-62,-58,-65,-60,-62
2023-12-08 00:45:40,-65,-57,-65,-62,-62,-66,-59,-65,-61,-58,-62,-54,-60,-62,-59,-66
2023-12-08 00:45:40,-59,-62,-61,-57,-64,-62,-61,-62,-55,-62,-59,-60,-64,-58,-63,-63
2023-12-08 00:45:40,-60,-66,-59,-64,-62,-57,-63,-58,-62,-62,-57,-66,-62,-60,-63,-55
2023-12-08 00:45:40,-65,-62,-60,-63,-58,-63,-63,-57,-63,-57,-63,-64,-61,-65,-63,-62
2023-12-08 00:45:40,-65,-56,-65,-59,-61,-66,-59,-66,-62,-58,-64,-59,-61,-61,-57,-64
2023-12-08 00:45:41,-58,-62,-61,-58,-65,-63,-65,-66,-57,-66,-61,-61,-65,-56,-62,-60
2023-12-08 00:45:41,-59,-64,-58,-61,-62,-59,-67,-61,-62,-62,-56,-65,-61,-64,-65,-55
2023-12-08 00:45:41,-63,-61,-62,-67,-59,-62,-65,-59,-65,-58,-61,-61,-55,-62,-58,-59
2023-12-08 00:45:41,-65,-60,-68,-62,-62,-67,-58,-64,-60,-60,-65,-59,-60,-59,-57,-66
2023-12-08 00:45:41,-58,-60,-60,-57,-63,-60,-61,-65,-57,-65,-61,-60,-65,-57,-63,-60
2023-12-08 00:45:41,-57,-63,-58,-61,-61,-58,-66,-60,-64,-61,-56,-65,-59,-61,-63,-56
2023-12-08 00:45:41,-63,-61,-57,-63,-56,-64,-61,-56,-63,-57,-64,-63,-59,-65,-61,-63
2023-12-08 00:45:41,-65,-59,-63,-58,-58,-64,-56,-64,-59,-59,-64,-59,-61,-60,-57,-65
2023-12-08 00:45:41,-58,-61,-60,-55,-63,-60,-59,-63,-54,-62,-60,-58,-62,-54,-62,-61
2023-12-08 00:45:41,-61,-65,-56,-58,-58,-55,-62,-57,-61,-62,-55,-63,-60,-60,-62,-55
2023-12-08 00:45:42,-62,-61,-57,-62,-54,-61,-59,-56,-62,-57,-61,-60,-57,-62,-60,-61
2023-12-08 00:45:42,-64,-56,-64,-58,-60,-64,-57,-64,-61,-59,-63,-56,-59,-60,-57,-67
2023-12-08 00:45:42,-58,-61,-61,-56,-63,-59,-58,-61,-56,-64,-61,-58,-65,-57,-63,-60
2023-12-08 00:45:42,-59,-63,-59,-62,-62,-59,-64,-59,-61,-60,-52,-62,-57,-61,-64,-58
2023-12-08 00:45:42,-66,-61,-61,-64,-56,-62,-62,-59,-64,-57,-61,-63,-60,-65,-59,-61
2023-12-08 00:45:42,-64,-59,-66,-61,-61,-64,-55,-63,-61,-61,-65,-58,-61,-62,-55,-62
2023-12-08 00:45:42,-56,-62,-62,-58,-66,-61,-64,-66,-61,-68,-62,-62,-65,-56,-63,-60
2023-12-08 00:45:42,-59,-65,-60,-62,-61,-57,-64,-60,-63,-63,-56,-63,-59,-63,-66,-58
2023-12-08 00:45:42,-64,-60,-59,-64,-55,-61,-62,-58,-63,-56,-61,-63,-60,-65,-59,-60
2023-12-08 00:45:42,-63,-56,-64,-59,-61,-63,-57,-64,-62,-60,-64,-56,-61,-62,-56,-63
2023-12-08 00:45:43,-56,-61,-61,-58,-64,-59,-61,-65,-60,-68,-62,-61,-64,-55,-62,-58
2023-12-08 00:45:43,-59,-63,-57,-60,-61,-55,-62,-55,-60,-60,-57,-65,-62,-64,-65,-58
2023-12-08 00:45:43,-66,-64,-59,-63,-55,-64,-61,-59,-65,-59,-62,-60,-56,-64,-61,-62
2023-12-08 00:45:43,-62,-57,-63,-60,-63,-66,-56,-64,-59,-58,-64,-55,-62,-61,-54,-63
2023-12-08 00:45:43,-58,-64,-63,-58,-63,-59,-62,-64,-58,-66,-59,-59,-62,-58,-64,-64
2023-12-08 00:45:43,-62,-67,-60,-63,-63,-57,-65,-59,-62,-62,-57,-64,-60,-60,-64,-58
2023-12-08 00:45:43,-67,-62,-61,-66,-60,-65,-62,-58,-63,-57,-62,-62,-56,-63,-57,-61
2023-12-08 00:45:43,-59,-54,-64,-61,-63,-65,-57,-64,-61,-59,-62,-55,-63,-62,-59,-65
2023-12-08 00:45:43,-60,-64,-62,-57,-64,-60,-64,-65,-56,-65,-60,-62,-64,-55,-63,-62
2023-12-08 00:45:44,-60,-64,-55,-60,-61,-58,-65,-59,-66,-65,-60,-66,-61,-64,-67,-60
2023-12-08 00:45:44,-67,-62,-62,-67,-60,-66,-63,-61,-67,-60,-63,-62,-58,-65,-61,-65
2023-12-08 00:45:44,-63,-58,-66,-60,-63,-64,-57,-67,-61,-60,-63,-57,-63,-61,-58,-63
2023-12-08 00:45:44,-58,-63,-62,-58,-63,-60,-63,-66,-59,-65,-60,-62,-65,-57,-64,-60
2023-12-08 00:45:44,-59,-64,-57,-61,-61,-57,-65,-58,-61,-62,-58,-64,-60,-62,-65,-57
2023-12-08 00:45:44,-65,-58,-60,-63,-58,-64,-62,-61,-65,-58,-63,-64,-59,-64,-59,-63
2023-12-08 00:45:44,-62,-58,-64,-61,-62,-64,-57,-65,-61,-60,-65,-57,-65,-62,-60,-64
2023-12-08 00:45:44,-59,-64,-63,-58,-64,-56,-61,-62,-56,-64,-58,-60,-63,-56,-65,-62
2023-12-08 00:45:44,-59,-64,-56,-61,-58,-55,-62,-58,-60,-61,-57,-63,-57,-59,-63,-58
2023-12-08 00:45:44,-68,-58,-59,-63,-58,-67,-65,-62,-64,-57,-61,-62,-58,-65,-57,-64
2023-12-08 00:45:44,-63,-58,-64,-60,-63,-65,-57,-65,-60,-60,-65,-58,-65,-61,-59,-64
2023-12-08 00:45:45,-59,-61,-61,-56,-63,-57,-62,-60,-56,-62,-58,-61,-64,-60,-65,-60
2023-12-08 00:45:45,-59,-62,-56,-63,-62,-62,-65,-59,-61,-62,-59,-66,-61,-63,-61,-57
2023-12-08 00:45:45,-66,-59,-61,-64,-57,-65,-61,-60,-63,-57,-62,-61,-59,-66,-61,-65
2023-12-08 00:45:45,-63,-58,-63,-59,-63,-64,-57,-64,-60,-62,-65,-58,-65,-62,-62,-67
2023-12-08 00:45:45,-58,-61,-61,-59,-64,-57,-61,-61,-57,-65,-61,-62,-64,-56,-65,-58
2023-12-08 00:45:45,-60,-63,-57,-64,-60,-59,-62,-58,-61,-60,-57,-65,-58,-61,-61,-56
2023-12-08 00:45:45,-65,-61,-62,-66,-58,-65,-61,-59,-64,-55,-61,-60,-59,-65,-59,-63
2023-12-08 00:45:45,-62,-58,-63,-57,-61,-61,-57,-64,-61,-64,-66,-58,-65,-62,-60,-63
2023-12-08 00:45:45,-52,-59,-58,-58,-64,-59,-63,-63,-59,-64,-61,-62,-66,-58,-66,-60
2023-12-08 00:45:45,-62,-64,-57,-65,-64,-61,-66,-58,-63,-63,-57,-63,-58,-64,-64,-59
2023-12-08 00:45:46,-62,-59,-60,-64,-56,-64,-59,-60,-66,-58,-63,-60,-61,-68,-60,-63
2023-12-08 00:45:46,-62,-57,-66,-60,-63,-61,-55,-63,-60,-62,-64,-57,-63,-58,-56,-61
2023-12-08 00:45:46,-55,-62,-61,-61,-65,-59,-62,-62,-59,-64,-58,-61,-59,-53,-61,-59
2023-12-08 00:45:46,-62,-65,-56,-62,-60,-60,-62,-54,-59,-59,-60,-66,-61,-64,-63,-59
2023-12-08 00:45:46,-64,-57,-60,-60,-56,-65,-59,-61,-65,-57,-64,-60,-59,-64,-55,-61
2023-12-08 00:45:46,-61,-56,-61,-56,-62,-63,-59,-64,-60,-62,-66,-60,-65,-59,-59,-64
2023-12-08 00:45:46,-58,-64,-62,-60,-65,-58,-61,-62,-54,-61,-55,-61,-62,-57,-63,-58
2023-12-08 00:45:46,-60,-62,-55,-64,-59,-60,-66,-58,-65,-62,-60,-64,-58,-61,-60,-56
2023-12-08 00:45:46,-63,-55,-61,-61,-57,-63,-59,-60,-64,-57,-63,-60,-59,-65,-57,-65
2023-12-08 00:45:46,-63,-60,-64,-57,-63,-62,-58,-61,-56,-61,-61,-56,-64,-60,-62,-64
2023-12-08 00:45:46,-54,-63,-59,-59,-63,-56,-61,-61,-55,-62,-57,-62,-61,-57,-62,-58
2023-12-08 00:45:47,-60,-61,-54,-64,-60,-60,-62,-53,-61,-59,-56,-62,-56,-62,-62,-57
2023-12-08 00:45:47,-63,-56,-61,-61,-58,-65,-59,-62,-65,-57,-65,-58,-59,-64,-57,-66
2023-12-08 00:45:47,-62,-58,-63,-56,-62,-60,-58,-64,-57,-63,-62,-56,-63,-59,-59,-61
2023-12-08 00:45:47,-56,-63,-58,-59,-64,-55,-63,-60,-59,-63,-57,-60,-61,-56,-63,-58
2023-12-08 00:45:47,-62,-62,-56,-65,-60,-63,-65,-56,-66,-62,-60,-63,-55,-62,-61,-57
2023-12-08 00:45:47,-64,-58,-64,-64,-58,-64,-58,-61,-62,-57,-63,-60,-60,-63,-54,-63
2023-12-08 00:45:47,-62,-62,-64,-56,-61,-61,-59,-66,-61,-64,-63,-58,-66,-62,-64,-65
2023-12-08 00:45:47,-57,-65,-60,-62,-66,-58,-64,-60,-59,-64,-57,-61,-62,-57,-64,-56
2023-12-08 00:45:47,-62,-63,-59,-65,-61,-61,-63,-58,-65,-61,-59,-63,-57,-65,-63,-62
2023-12-08 00:45:47,-64,-57,-61,-63,-57,-64,-57,-60,-61,-56,-62,-57,-60,-64,-58,-65
2023-12-08 00:45:47,-60,-58,-60,-55,-62,-62,-62,-66,-61,-63,-63,-58,-67,-60,-62,-58
2023-12-08 00:45:48,-54,-63,-58,-60,-63,-58,-65,-60,-58,-63,-56,-64,-62,-60,-63,-56
2023-12-08 00:45:48,-62,-61,-57,-63,-61,-61,-63,-56,-64,-61,-64,-66,-58,-64,-58,-58
2023-12-08 00:45:48,-63,-54,-61,-61,-57,-64,-59,-64,-63,-59,-64,-59,-60,-62,-55,-64
2023-12-08 00:45:48,-60,-61,-66,-58,-65,-60,-60,-64,-56,-60,-62,-58,-65,-57,-62,-61
2023-12-08 00:45:48,-58,-63,-60,-60,-61,-53,-63,-60,-61,-67,-62,-66,-62,-59,-65,-58
2023-12-08 00:45:48,-62,-61,-58,-65,-60,-62,-62,-56,-64,-60,-61,-64,-57,-64,-60,-60
2023-12-08 00:45:48,-66,-60,-66,-63,-60,-64,-59,-63,-64,-58,-65,-59,-63,-62,-56,-62
2023-12-08 00:45:48,-59,-61,-64,-54,-63,-59,-60,-64,-56,-62,-63,-59,-65,-57,-62,-62
2023-12-08 00:45:48,-56,-61,-56,-61,-63,-59,-68,-62,-64,-65,-57,-65,-63,-62,-66,-57
2023-12-08 00:45:48,-59,-61,-57,-64,-57,-62,-63,-60,-64,-59,-61,-64,-56,-66,-60,-62
2023-12-08 00:45:48,-67,-58,-63,-61,-60,-66,-58,-61,-64,-57,-64,-58,-63,-64,-59,-64
2023-12-08 00:45:49,-60,-62,-65,-58,-66,-61,-61,-65,-59,-66,-64,-62,-66,-60,-63,-64
2023-12-08 00:45:49,-56,-63,-57,-62,-60,-58,-65,-62,-62,-63,-56,-64,-62,-59,-62,-54
2023-12-08 00:45:49,-63,-62,-61,-64,-58,-62,-62,-57,-63,-57,-63,-62,-57,-64,-59,-61
2023-12-08 00:45:49,-64,-55,-63,-59,-58,-63,-57,-64,-62,-57,-63,-58,-63,-61,-57,-62
2023-12-08 00:45:49,-57,-61,-63,-58,-67,-61,-61,-66,-58,-66,-61,-59,-63,-55,-61,-61
2023-12-08 00:45:49,-57,-65,-58,-63,-61,-56,-62,-62,-62,-64,-54,-64,-60,-62,-66,-59
2023-12-08 00:45:49,-65,-62,-59,-63,-56,-62,-63,-57,-65,-59,-64,-63,-57,-63,-61,-61
2023-12-08 00:45:49,-64,-58,-65,-60,-60,-64,-59,-65,-62,-59,-64,-59,-62,-62,-56,-65
2023-12-08 00:45:49,-58,-63,-61,-56,-63,-60,-62,-66,-58,-64,-59,-59,-64,-57,-61,-58
2023-12-08 00:45:49,-57,-64,-58,-61,-60,-56,-65,-59,-62,-61,-55,-64,-58,-59,-63,-56
2023-12-08 00:45:50,-65,-60,-59,-63,-56,-63,-61,-57,-63,-56,-61,-60,-55,-62,-57,-60
2023-12-08 00:45:50,-60,-55,-63,-60,-62,-64,-55,-63,-59,-58,-63,-56,-62,-61,-56,-64
2023-12-08 00:45:50,-58,-64,-62,-56,-63,-60,-64,-64,-57,-66,-59,-58,-63,-56,-65,-61
2023-12-08 00:45:50,-59,-62,-58,-64,-65,-59,-63,-57,-63,-64,-58,-64,-60,-60,-61,-55
2023-12-08 00:45:50,-61,-58,-59,-63,-56,-62,-60,-59,-63,-58,-61,-62,-57,-64,-56,-61
2023-12-08 00:45:50,-61,-57,-62,-57,-60,-62,-54,-61,-57,-57,-64,-57,-65,-63,-60,-64
2023-12-08 00:45:50,-59,-62,-62,-57,-64,-57,-59,-59,-58,-65,-62,-61,-64,-58,-66,-63
2023-12-08 00:45:50,-59,-61,-53,-62,-62,-61,-62,-57,-62,-64,-60,-66,-62,-64,-66,-58
2023-12-08 00:45:50,-64,-59,-61,-66,-60,-66,-61,-61,-64,-57,-62,-63,-62,-68,-60,-63
2023-12-08 00:45:50,-62,-57,-65,-60,-62,-62,-56,-64,-59,-60,-63,-56,-63,-61,-60,-62
2023-12-08 00:45:50,-55,-59,-58,-56,-65,-58,-63,-61,-55,-62,-60,-62,-64,-56,-64,-59
2023-12-08 00:45:51,-61,-65,-58,-63,-59,-60,-65,-58,-64,-64,-60,-68,-62,-65,-62,-57
2023-12-08 00:45:51,-64,-62,-62,-64,-59,-65,-61,-61,-67,-61,-64,-62,-61,-66,-60,-63
2023-12-08 00:45:51,-63,-58,-64,-59,-60,-60,-54,-61,-58,-60,-61,-55,-64,-60,-58,-62
2023-12-08 00:45:51,-55,-60,-62,-58,-62,-57,-60,-61,-56,-63,-59,-60,-60,-54,-63,-59
2023-12-08 00:45:51,-62,-64,-56,-61,-58,-58,-61,-54,-60,-60,-58,-65,-60,-66,-65,-58
2023-12-08 00:45:51,-65,-59,-63,-62,-57,-62,-57,-59,-65,-58,-62,-58,-58,-62,-57,-62
2023-12-08 00:45:51,-61,-59,-64,-56,-61,-60,-58,-64,-59,-61,-61,-59,-66,-60,-60,-62
2023-12-08 00:45:51,-55,-60,-59,-57,-62,-55,-60,-59,-59,-65,-60,-61,-61,-55,-61,-58
2023-12-08 00:45:51,-60,-64,-59,-66,-60,-60,-65,-59,-67,-65,-65,-69,-60,-66,-68,-67
2023-12-08 00:45:51,-72,-67,-68,-68,-62,-68,-62,-65,-70,-64,-71,-68,-72,-78,-75,-82
2023-12-08 00:45:52,-78,-77,-83,-76,-78,-78,-76,-80,-74,-76,-76,-73,-76,-70,-69,-68
2023-12-08 00:45:52,-61,-61,-55,-56,-56,-46,-47,-42,-37,-41,-35,-36,-38,-34,-40,-35
2023-12-08 00:45:52,-42,-48,-44,-49,-46,-50,-55,-51,-59,-57,-57,-62,-57,-65,-64,-61
2023-12-08 00:45:52,-69,-65,-73,-72,-69,-76,-72,-74,-73,-68,-74,-72,-71,-73,-65,-73
2023-12-08 00:45:52,-69,-70,-76,-70,-74,-73,-71,-76,-74,-78,-77,-70,-78,-73,-75,-77
2023-12-08 00:45:52,-67,-72,-66,-65,-68,-61,-66,-63,-59,-66,-61,-64,-62,-59,-62,-57
2023-12-08 00:45:52,-61,-64,-59,-65,-60,-62,-67,-59,-65,-63,-64,-68,-60,-62,-63,-61
2023-12-08 00:45:52,-69,-60,-64,-63,-61,-68,-62,-62,-62,-58,-67,-64,-61,-63,-57,-66
2023-12-08 00:45:52,-62,-62,-64,-59,-64,-65,-61,-66,-61,-66,-67,-64,-69,-62,-63,-64
2023-12-08 00:45:52,-59,-67,-64,-63,-66,-60,-67,-66,-67,-69,-63,-66,-67,-63,-71,-63
2023-12-08 00:45:52,-66,-65,-61,-68,-63,-66,-67,-61,-67,-62,-64,-67,-62,-67,-65,-62
2023-12-08 00:45:53,-68,-61,-64,-64,-62,-67,-61,-62,-65,-62,-66,-62,-65,-65,-61,-69
2023-12-08 00:45:53,-64,-63,-66,-57,-63,-65,-62,-69,-61,-65,-65,-61,-69,-64,-64,-65
2023-12-08 00:45:53,-61,-68,-65,-66,-68,-63,-69,-66,-64,-66,-60,-65,-67,-65,-70,-63
2023-12-08 00:45:53,-66,-66,-61,-68,-64,-66,-65,-60,-69,-66,-68,-68,-59,-65,-65,-65
2023-12-08 00:45:53,-69,-60,-64,-65,-64,-69,-62,-66,-66,-63,-67,-62,-63,-65,-62,-69
2023-12-08 00:45:53,-63,-64,-67,-64,-70,-68,-64,-67,-61,-67,-67,-65,-70,-62,-67,-67
2023-12-08 00:45:53,-62,-69,-65,-66,-68,-63,-68,-64,-65,-69,-63,-67,-65,-62,-67,-59
2023-12-08 00:45:53,-66,-66,-65,-69,-64,-68,-67,-63,-70,-67,-69,-70,-63,-69,-66,-65
2023-12-08 00:45:53,-69,-62,-65,-64,-61,-68,-61,-68,-68,-65,-70,-66,-67,-66,-61,-69
2023-12-08 00:45:53,-65,-67,-67,-61,-67,-64,-65,-69,-61,-66,-65,-65,-72,-63,-67,-67
2023-12-08 00:45:53,-60,-69,-64,-68,-66,-62,-70,-66,-67,-68,-59,-66,-64,-64,-68,-62
2023-12-08 00:45:54,-65,-64,-63,-70,-63,-67,-67,-63,-69,-65,-67,-66,-59,-66,-63,-64
2023-12-08 00:45:54,-69,-63,-69,-67,-64,-68,-63,-67,-67,-65,-70,-62,-64,-65,-62,-69
2023-12-08 00:45:54,-65,-67,-71,-65,-70,-65,-65,-71,-63,-67,-64,-62,-70,-63,-68,-66
2023-12-08 00:45:54,-64,-71,-65,-65,-65,-60,-67,-65,-67,-69,-61,-67,-63,-63,-68,-64
2023-12-08 00:45:54,-69,-67,-65,-68,-62,-68,-68,-65,-67,-63,-65,-66,-61,-69,-63,-66
2023-12-08 00:45:54,-68,-63,-69,-67,-65,-67,-59,-64,-63,-63,-71,-62,-64,-63,-59,-69
2023-12-08 00:45:54,-67,-67,-67,-61,-67,-64,-64,-67,-60,-69,-68,-66,-68,-62,-66,-68
2023-12-08 00:45:54,-64,-70,-62,-64,-64,-62,-67,-64,-66,-69,-65,-71,-66,-66,-71,-65
2023-12-08 00:45:54,-69,-66,-64,-68,-62,-66,-67,-62,-68,-62,-66,-68,-63,-69,-65,-67
2023-12-08 00:45:54,-69,-62,-67,-64,-63,-68,-59,-65,-65,-62,-67,-60,-63,-62,-60,-66
2023-12-08 00:45:54,-61,-63,-64,-57,-64,-61,-62,-67,-60,-66,-65,-64,-69,-62,-67,-66
2023-12-08 00:45:55,-63,-69,-62,-69,-68,-66,-71,-69,-73,-74,-70,-76,-70,-70,-72,-68
2023-12-08 00:45:55,-78,-73,-70,-73,-64,-70,-69,-64,-68,-63,-64,-63,-59,-64,-58,-62
2023-12-08 00:45:55,-62,-58,-63,-60,-59,-62,-58,-63,-63,-63,-67,-61,-67,-66,-62,-70
2023-12-08 00:45:55,-65,-71,-70,-65,-70,-68,-70,-75,-68,-75,-71,-71,-73,-65,-72,-71
2023-12-08 00:45:55,-71,-76,-67,-72,-71,-67,-73,-66,-68,-68,-60,-65,-62,-63,-63,-59
2023-12-08 00:45:55,-65,-63,-62,-66,-60,-66,-66,-62,-67,-62,-66,-66,-61,-68,-65,-68
2023-12-08 00:45:55,-67,-60,-67,-63,-66,-67,-60,-67,-65,-64,-67,-60,-65,-66,-64,-72
2023-12-08 00:45:55,-64,-71,-71,-65,-71,-66,-67,-68,-61,-66,-64,-68,-72,-65,-69,-64
2023-12-08 00:45:55,-63,-68,-61,-66,-66,-64,-70,-63,-68,-67,-64,-69,-66,-67,-72,-66
2023-12-08 00:45:55,-75,-69,-69,-70,-65,-70,-70,-67,-70,-60,-64,-66,-60,-69,-62,-66
2023-12-08 00:45:55,-65,-60,-67,-64,-66,-68,-61,-69,-65,-64,-70,-63,-67,-65,-63,-67
2023-12-08 00:45:56,-63,-69,-69,-63,-69,-61,-65,-66,-62,-70,-66,-67,-69,-62,-68,-67
2023-12-08 00:45:56,-64,-69,-62,-66,-66,-64,-68,-62,-67,-67,-63,-70,-65,-67,-65,-60
2023-12-08 00:45:56,-69,-64,-67,-70,-63,-71,-67,-66,-70,-61,-65,-63,-62,-70,-62,-69
2023-12-08 00:45:56,-67,-62,-70,-67,-67,-69,-63,-69,-66,-66,-71,-65,-70,-66,-66,-71
2023-12-08 00:45:56,-64,-65,-64,-59,-66,-62,-64,-63,-58,-64,-57,-63,-61,-57,-62,-61
2023-12-08 00:45:56,-59,-64,-55,-67,-66,-66,-67,-61,-65,-67,-61,-68,-61,-66,-65,-60
2023-12-08 00:45:56,-67,-63,-66,-70,-61,-68,-65,-67,-71,-64,-70,-68,-66,-71,-64,-67
2023-12-08 00:45:56,-65,-63,-68,-63,-67,-67,-62,-68,-65,-67,-70,-61,-69,-63,-63,-69
2023-12-08 00:45:56,-61,-69,-68,-63,-69,-63,-69,-69,-65,-71,-67,-70,-70,-67,-74,-71
2023-12-08 00:45:56,-71,-77,-68,-72,-70,-68,-75,-68,-71,-70,-68,-72,-66,-68,-68,-62
2023-12-08 00:45:56,-66,-59,-62,-67,-62,-65,-58,-56,-58,-54,-59,-54,-50,-54,-48,-56
2023-12-08 00:45:57,-55,-53,-59,-55,-58,-62,-59,-65,-58,-63,-68,-65,-73,-68,-68,-73
2023-12-08 00:45:57,-65,-71,-70,-68,-75,-69,-74,-75,-72,-78,-75,-81,-81,-75,-80,-73
2023-12-08 00:45:57,-71,-69,-62,-66,-63,-63,-61,-54,-57,-54,-53,-58,-54,-60,-58,-56
2023-12-08 00:45:57,-64,-61,-63,-64,-61,-67,-63,-63,-65,-61,-67,-62,-59,-60,-54,-61
2023-12-08 00:45:57,-62,-60,-66,-61,-66,-65,-61,-67,-62,-65,-64,-61,-65,-62,-62,-67
2023-12-08 00:45:57,-61,-67,-63,-61,-63,-56,-60,-61,-57,-63,-56,-62,-61,-58,-62,-60
2023-12-08 00:45:57,-63,-63,-58,-67,-61,-61,-66,-58,-65,-63,-63,-67,-60,-63,-62,-60
2023-12-08 00:45:57,-68,-62,-64,-63,-60,-66,-63,-66,-68,-64,-68,-64,-63,-70,-63,-68
2023-12-08 00:45:57,-65,-65,-69,-64,-68,-67,-62,-69,-63,-64,-63,-61,-68,-64,-65,-70
2023-12-08 00:45:57,-65,-72,-67,-65,-68,-61,-66,-62,-62,-70,-66,-70,-68,-63,-70,-64
2023-12-08 00:45:58,-64,-65,-60,-65,-63,-66,-70,-63,-67,-63,-63,-68,-61,-65,-66,-63
2023-12-08 00:45:58,-68,-63,-68,-68,-63,-67,-61,-63,-65,-61,-69,-65,-65,-68,-63,-70
2023-12-08 00:45:58,-70,-68,-72,-63,-68,-69,-64,-68,-62,-65,-66,-63,-69,-65,-66,-69
2023-12-08 00:45:58,-64,-69,-65,-65,-73,-63,-67,-63,-65,-69,-65,-68,-68,-61,-69,-62
2023-12-08 00:45:58,-67,-66,-63,-71,-66,-66,-67,-62,-67,-64,-63,-67,-62,-66,-64,-63
2023-12-08 00:45:58,-68,-61,-64,-62,-58,-65,-60,-64,-63,-57,-61,-58,-60,-63,-57,-62
2023-12-08 00:45:58,-58,-57,-62,-58,-62,-62,-58,-63,-57,-61,-62,-61,-66,-61,-65,-64
2023-12-08 00:45:58,-62,-67,-65,-66,-69,-62,-65,-62,-62,-66,-60,-61,-61,-60,-66,-62
2023-12-08 00:45:58,-65,-66,-61,-65,-59,-64,-65,-60,-65,-61,-63,-67,-62,-64,-62,-61
2023-12-08 00:45:58,-67,-60,-66,-66,-62,-68,-63,-69,-66,-63,-69,-69,-68,-69,-65,-70
2023-12-08 00:45:59,-67,-65,-69,-64,-68,-64,-65,-68,-64,-68,-68,-62,-70,-64,-65,-64
2023-12-08 00:45:59,-60,-67,-64,-63,-66,-62,-68,-66,-65,-71,-63,-66,-65,-63,-69,-63
2023-12-08 00:45:59,-68,-68,-61,-68,-62,-65,-69,-66,-72,-65,-68,-70,-64,-69,-67,-66
2023-12-08 00:45:59,-71,-62,-65,-66,-62,-70,-64,-68,-67,-63,-65,-63,-65,-66,-61,-67
2023-12-08 00:45:59,-61,-61,-68,-63,-66,-66,-64,-67,-62,-66,-69,-65,-72,-64,-68,-67
2023-12-08 00:45:59,-63,-69,-64,-65,-67,-61,-70,-64,-64,-68,-62,-64,-63,-63,-68,-61
2023-12-08 00:45:59,-65,-65,-61,-68,-62,-62,-63,-60,-69,-65,-68,-68,-62,-66,-64,-64
2023-12-08 00:45:59,-68,-60,-66,-65,-66,-69,-63,-65,-66,-62,-67,-61,-63,-64,-60,-66
2023-12-08 00:45:59,-61,-62,-66,-61,-64,-65,-63,-67,-61,-64,-63,-62,-67,-60,-63,-62
2023-12-08 00:45:59,-60,-66,-62,-66,-66,-63,-68,-63,-62,-65,-61,-66,-62,-60,-65,-58
2023-12-08 00:45:59,-64,-63,-62,-69,-63,-67,-66,-64,-71,-66,-66,-67,-63,-69,-67,-68
2023-12-08 00:46:00,-71,-64,-70,-67,-68,-71,-63,-68,-70,-67,-73,-67,-67,-66,-61,-67
2023-12-08 00:46:00,-64,-67,-68,-63,-67,-63,-62,-67,-62,-63,-62,-63,-69,-62,-64,-63
2023-12-08 00:46:00,-59,-64,-59,-61,-61,-57,-64,-61,-62,-64,-57,-63,-63,-61,-65,-60
2023-12-08 00:46:00,-63,-62,-60,-66,-60,-65,-66,-62,-66,-62,-63,-64,-61,-65,-60,-59
2023-12-08 00:46:00,-66,-61,-67,-64,-62,-65,-62,-64,-63,-62,-67,-60,-62,-63,-58,-63
2023-12-08 00:46:00,-56,-58,-59,-53,-60,-58,-56,-61,-53,-62,-60,-61,-64,-60,-62,-62
2023-12-08 00:46:00,-59,-66,-59,-61,-62,-60,-66,-62,-64,-65,-60,-67,-63,-61,-65,-56
2023-12-08 00:46:00,-64,-62,-61,-64,-60,-63,-64,-60,-66,-60,-64,-65,-61,-69,-65,-66
2023-12-08 00:46:00,-68,-61,-69,-65,-63,-67,-60,-68,-68,-64,-69,-62,-68,-67,-62,-67
2023-12-08 00:46:00,-62,-67,-66,-61,-68,-64,-65,-67,-59,-66,-63,-63,-70,-63,-67,-66
2023-12-08 00:46:00,-60,-66,-61,-65,-64,-60,-66,-62,-65,-68,-59,-67,-63,-61,-64,-59
2023-12-08 00:46:01,-65,-65,-62,-65,-58,-63,-66,-60,-67,-59,-63,-65,-61,-67,-62,-62
2023-12-08 00:46:01,-66,-60,-68,-63,-63,-66,-62,-67,-66,-63,-68,-62,-66,-65,-61,-68
2023-12-08 00:46:01,-61,-65,-63,-61,-68,-64,-64,-68,-60,-67,-65,-64,-70,-63,-68,-66
2023-12-08 00:46:01,-64,-69,-63,-68,-67,-60,-67,-62,-65,-66,-60,-66,-63,-63,-68,-63
2023-12-08 00:46:01,-71,-68,-65,-69,-61,-67,-68,-64,-67,-60,-64,-65,-61,-67,-63,-64
2023-12-08 00:46:01,-67,-61,-69,-63,-62,-67,-63,-69,-68,-65,-69,-61,-65,-65,-62,-68
2023-12-08 00:46:01,-63,-65,-65,-59,-69,-64,-66,-66,-62,-70,-66,-64,-67,-57,-67,-65
2023-12-08 00:46:01,-64,-67,-61,-65,-65,-60,-65,-61,-65,-66,-59,-66,-59,-62,-65,-60
2023-12-08 00:46:01,-65,-61,-59,-65,-58,-66,-62,-61,-68,-62,-67,-65,-61,-68,-61,-64
2023-12-08 00:46:01,-65,-59,-69,-63,-63,-68,-62,-68,-65,-62,-68,-61,-66,-64,-59,-66
2023-12-08 00:46:01,-62,-67,-66,-61,-68,-64,-64,-65,-61,-68,-61,-62,-65,-57,-65,-65
2023-12-08 00:46:02,-65,-67,-60,-64,-65,-63,-71,-62,-66,-64,-61,-68,-64,-64,-67,-61
2023-12-08 00:46:02,-68,-64,-64,-70,-62,-68,-63,-62,-69,-64,-67,-65,-58,-67,-63,-67
2023-12-08 00:46:02,-66,-60,-68,-62,-62,-65,-59,-68,-68,-66,-70,-61,-63,-62,-59,-67
2023-12-08 00:46:02,-62,-66,-65,-61,-67,-63,-66,-65,-59,-66,-61,-63,-66,-59,-69,-66
2023-12-08 00:46:02,-64,-67,-59,-63,-66,-62,-68,-60,-64,-64,-61,-68,-64,-66,-67,-59
2023-12-08 00:46:02,-67,-62,-63,-66,-58,-65,-64,-64,-68,-59,-64,-64,-61,-67,-61,-65
2023-12-08 00:46:02,-66,-60,-65,-63,-64,-67,-59,-65,-60,-61,-66,-63,-67,-66,-63,-67
2023-12-08 00:46:02,-59,-65,-66,-62,-67,-60,-61,-62,-58,-65,-62,-66,-67,-59,-66,-64
2023-12-08 00:46:02,-63,-67,-60,-67,-66,-64,-70,-63,-69,-70,-64,-73,-68,-69,-69,-62
2023-12-08 00:46:02,-67,-65,-64,-66,-58,-64,-63,-60,-63,-56,-62,-62,-58,-63,-56,-62
2023-12-08 00:46:02,-62,-59,-67,-62,-65,-69,-62,-70,-66,-66,-69,-60,-67,-65,-64,-68
2023-12-08 00:46:03,-62,-64,-65,-61,-67,-59,-64,-64,-61,-67,-63,-63,-68,-62,-69,-66
2023-12-08 00:46:03,-63,-68,-61,-66,-65,-65,-68,-64,-68,-67,-62,-66,-63,-69,-68,-62
2023-12-08 00:46:03,-71,-68,-69,-70,-61,-69,-67,-65,-68,-60,-66,-67,-66,-73,-67,-71
2023-12-08 00:46:03,-71,-65,-73,-68,-69,-70,-62,-72,-66,-65,-70,-61,-66,-64,-63,-68
2023-12-08 00:46:03,-63,-68,-67,-63,-71,-63,-67,-66,-61,-68,-66,-67,-68,-63,-72,-69
2023-12-08 00:46:03,-69,-75,-64,-71,-67,-66,-68,-62,-65,-64,-61,-68,-60,-66,-66,-60
2023-12-08 00:46:03,-67,-61,-60,-65,-57,-66,-63,-61,-64,-56,-65,-63,-60,-65,-59,-63
2023-12-08 00:46:03,-64,-59,-64,-57,-60,-60,-56,-65,-62,-61,-63,-56,-67,-66,-64,-66
2023-12-08 00:46:03,-58,-65,-66,-62,-69,-63,-68,-67,-63,-68,-66,-69,-70,-63,-69,-64
2023-12-08 00:46:03,-64,-68,-57,-63,-61,-60,-69,-61,-65,-62,-58,-63,-57,-58,-59,-55
2023-12-08 00:46:03,-65,-61,-62,-64,-56,-64,-62,-63,-68,-60,-65,-65,-64,-70,-65,-67
2023-12-08 00:46:04,-68,-64,-69,-63,-66,-66,-59,-69,-65,-66,-66,-57,-66,-63,-66,-71
2023-12-08 00:46:04,-63,-70,-68,-67,-70,-64,-67,-68,-66,-71,-67,-70,-70,-65,-74,-71
2023-12-08 00:46:04,-72,-77,-68,-74,-70,-68,-74,-64,-66,-62,-61,-66,-60,-62,-62,-59
2023-12-08 00:46:04,-66,-61,-61,-64,-58,-69,-64,-63,-65,-56,-63,-63,-63,-66,-58,-60
2023-12-08 00:46:04,-62,-59,-69,-60,-64,-62,-58,-68,-64,-66,-69,-60,-70,-65,-65,-71
2023-12-08 00:46:04,-64,-70,-66,-65,-69,-63,-69,-67,-62,-66,-60,-65,-65,-59,-65,-61
2023-12-08 00:46:04,-59,-63,-58,-65,-62,-59,-64,-58,-66,-65,-61,-67,-61,-67,-65,-61
2023-12-08 00:46:04,-68,-65,-67,-67,-58,-66,-63,-63,-67,-59,-66,-64,-66,-70,-60,-63
2023-12-08 00:46:04,-64,-60,-66,-58,-63,-66,-64,-69,-64,-64,-64,-58,-66,-59,-60,-58
2023-12-08 00:46:04,-52,-58,-56,-54,-58,-55,-60,-59,-56,-62,-56,-60,-62,-58,-66,-62
2023-12-08 00:46:04,-62,-68,-64,-71,-70,-71,-76,-68,-71,-70,-69,-71,-66,-69,-68,-61
2023-12-08 00:46:05,-69,-61,-65,-67,-59,-65,-61,-64,-67,-60,-65,-60,-60,-64,-57,-65
2023-12-08 00:46:05,-64,-61,-67,-63,-67,-68,-65,-73,-70,-73,-72,-66,-73,-69,-67,-70
2023-12-08 00:46:05,-60,-67,-65,-64,-67,-60,-63,-65,-59,-66,-58,-62,-63,-59,-67,-66
2023-12-08 00:46:05,-68,-70,-61,-70,-67,-70,-72,-64,-70,-69,-69,-72,-65,-66,-69,-66
2023-12-08 00:46:05,-71,-65,-68,-68,-62,-65,-60,-59,-60,-54,-58,-57,-58,-63,-55,-61
2023-12-08 00:46:05,-61,-59,-66,-59,-64,-63,-59,-64,-60,-62,-62,-57,-64,-61,-62,-63
2023-12-08 00:46:05,-54,-61,-58,-59,-64,-58,-63,-63,-59,-65,-58,-63,-64,-61,-67,-59
2023-12-08 00:46:05,-62,-65,-59,-69,-65,-63,-68,-60,-68,-67,-66,-69,-62,-66,-67,-63
2023-12-08 00:46:05,-70,-60,-61,-61,-56,-61,-57,-60,-63,-55,-61,-56,-53,-57,-53,-59
2023-12-08 00:46:05,-59,-56,-63,-58,-63,-62,-59,-66,-61,-63,-65,-60,-71,-66,-64,-68
2023-12-08 00:46:06,-62,-67,-65,-63,-69,-62,-67,-66,-61,-67,-62,-66,-66,-63,-69,-64
2023-12-08 00:46:06,-64,-65,-58,-69,-63,-64,-68,-62,-69,-68,-65,-69,-62,-66,-65,-62
2023-12-08 00:46:06,-67,-61,-67,-66,-60,-65,-62,-66,-70,-62,-69,-64,-66,-69,-59,-67
2023-12-08 00:46:06,-64,-62,-65,-61,-67,-66,-62,-66,-63,-66,-66,-59,-69,-65,-68,-71
2023-12-08 00:46:06,-61,-69,-66,-65,-71,-61,-66,-65,-62,-66,-58,-63,-62,-57,-63,-60
2023-12-08 00:46:06,-65,-68,-62,-70,-67,-65,-68,-61,-68,-64,-62,-66,-58,-62,-62,-61
2023-12-08 00:46:06,-67,-60,-64,-64,-61,-66,-61,-63,-66,-60,-67,-65,-64,-68,-59,-66
2023-12-08 00:46:06,-65,-64,-69,-62,-62,-63,-60,-66,-62,-65,-64,-61,-67,-64,-67,-71
2023-12-08 00:46:06,-61,-70,-65,-65,-71,-60,-70,-68,-63,-67,-62,-66,-66,-60,-66,-61
2023-12-08 00:46:06,-65,-67,-58,-68,-64,-65,-69,-61,-66,-63,-61,-66,-58,-63,-63,-58
2023-12-08 00:46:06,-67,-61,-67,-66,-62,-68,-64,-65,-66,-59,-68,-64,-64,-67,-59,-65
2023-12-08 00:46:07,-65,-65,-69,-62,-64,-65,-60,-66,-58,-63,-63,-59,-66,-62,-64,-67
2023-12-08 00:46:07,-57,-66,-63,-62,-66,-57,-62,-62,-60,-66,-61,-62,-64,-60,-67,-60
2023-12-08 00:46:07,-64,-63,-60,-67,-65,-66,-69,-61,-69,-64,-64,-70,-63,-69,-67,-60
2023-12-08 00:46:07,-65,-59,-65,-64,-61,-65,-60,-61,-65,-56,-64,-57,-56,-55,-48,-53
2023-12-08 00:46:07,-52,-52,-58,-53,-58,-56,-52,-60,-54,-60,-61,-59,-67,-64,-65,-70
2023-12-08 00:46:07,-64,-74,-69,-68,-73,-64,-70,-68,-64,-68,-63,-67,-64,-60,-66,-60
2023-12-08 00:46:07,-63,-63,-55,-63,-62,-64,-69,-58,-66,-62,-64,-67,-59,-66,-64,-59
2023-12-08 00:46:07,-65,-59,-64,-65,-61,-67,-63,-65,-64,-56,-67,-64,-66,-68,-61,-64
2023-12-08 00:46:07,-65,-62,-68,-61,-66,-65,-63,-68,-62,-67,-66,-61,-67,-62,-67,-70
2023-12-08 00:46:07,-62,-69,-63,-64,-71,-61,-67,-65,-63,-69,-62,-65,-65,-62,-67,-62
2023-12-08 00:46:07,-67,-69,-66,-71,-66,-66,-67,-59,-66,-64,-67,-72,-64,-71,-70,-69
2023-12-08 00:46:08,-72,-66,-69,-69,-62,-69,-63,-66,-67,-62,-68,-63,-59,-64,-57,-66
2023-12-08 00:46:08,-62,-61,-65,-59,-63,-62,-60,-68,-63,-68,-65,-63,-66,-63,-65,-69
2023-12-08 00:46:08,-60,-69,-65,-65,-69,-59,-68,-67,-63,-66,-59,-62,-63,-61,-68,-61
2023-12-08 00:46:08,-66,-65,-59,-68,-63,-66,-67,-61,-68,-65,-65,-72,-62,-69,-67,-69
2023-12-08 00:46:08,-77,-70,-75,-76,-70,-80,-74,-79,-80,-74,-81,-74,-70,-73,-63,-69
2023-12-08 00:46:08,-64,-63,-66,-59,-61,-57,-52,-59,-53,-54,-56,-54,-62,-56,-60,-62
2023-12-08 00:46:08,-55,-61,-59,-60,-63,-55,-61,-58,-57,-64,-55,-59,-58,-56,-62,-55
2023-12-08 00:46:08,-58,-60,-55,-64,-57,-62,-64,-58,-66,-63,-61,-65,-56,-64,-61,-61
2023-12-08 00:46:08,-65,-62,-64,-65,-61,-67,-63,-66,-66,-60,-68,-63,-66,-70,-61,-67
2023-12-08 00:46:08,-59,-59,-66,-61,-67,-64,-59,-64,-58,-61,-65,-62,-67,-60,-61,-63
2023-12-08 00:46:08,-58,-70,-64,-63,-68,-61,-68,-66,-65,-68,-63,-64,-63,-60,-68,-61
2023-12-08 00:46:09,-66,-64,-61,-69,-64,-65,-66,-58,-66,-60,-63,-66,-59,-65,-63,-60
2023-12-08 00:46:09,-67,-61,-63,-62,-61,-67,-62,-66,-64,-60,-68,-65,-64,-68,-59,-69
2023-12-08 00:46:09,-64,-63,-66,-57,-64,-63,-59,-63,-58,-62,-65,-61,-67,-63,-64,-65
2023-12-08 00:46:09,-55,-65,-64,-63,-68,-60,-68,-63,-61,-64,-58,-62,-63,-58,-66,-60
2023-12-08 00:46:09,-66,-67,-63,-67,-62,-64,-66,-62,-70,-66,-64,-71,-62,-66,-65,-63
2023-12-08 00:46:09,-67,-62,-66,-68,-65,-70,-64,-66,-69,-62,-69,-63,-64,-65,-57,-64
2023-12-08 00:46:09,-61,-63,-67,-58,-65,-64,-59,-65,-60,-64,-64,-61,-68,-62,-66,-67
2023-12-08 00:46:09,-61,-72,-67,-65,-70,-63,-70,-66,-60,-65,-60,-66,-64,-58,-63,-56
2023-12-08 00:46:09,-60,-62,-57,-63,-59,-61,-64,-56,-66,-62,-64,-67,-61,-66,-65,-63
2023-12-08 00:46:09,-67,-62,-65,-67,-60,-66,-58,-64,-65,-59,-65,-60,-62,-65,-57,-62
2023-12-08 00:46:09,-60,-59,-61,-56,-61,-62,-57,-65,-61,-65,-64,-59,-63,-59,-61,-65
2023-12-08 00:46:10,-58,-67,-63,-63,-65,-58,-65,-63,-60,-66,-58,-63,-60,-55,-61,-58
2023-12-08 00:46:10,-64,-64,-57,-63,-60,-63,-64,-55,-63,-62,-62,-67,-59,-66,-64,-61
2023-12-08 00:46:10,-67,-63,-66,-67,-61,-66,-59,-64,-64,-61,-68,-63,-63,-68,-60,-68
2023-12-08 00:46:10,-62,-61,-66,-58,-64,-61,-57,-63,-60,-64,-68,-63,-67,-64,-68,-70
2023-12-08 00:46:10,-65,-72,-67,-68,-72,-64,-69,-66,-64,-71,-64,-69,-71,-67,-73,-65
2023-12-08 00:46:10,-68,-65,-59,-68,-63,-66,-67,-58,-66,-62,-62,-66,-57,-65,-61,-56
2023-12-08 00:46:10,-63,-58,-62,-61,-56,-64,-59,-65,-64,-57,-66,-62,-64,-66,-59,-68
2023-12-08 00:46:10,-64,-62,-67,-58,-66,-65,-64,-67,-60,-64,-64,-62,-68,-63,-66,-66
2023-12-08 00:46:10,-57,-67,-62,-66,-69,-60,-67,-65,-63,-69,-61,-64,-65,-61,-67,-61
2023-12-08 00:46:10,-63,-63,-58,-66,-61,-63,-66,-58,-68,-62,-63,-68,-59,-65,-62,-61
2023-12-08 00:46:10,-66,-60,-62,-62,-58,-65,-61,-65,-65,-61,-69,-64,-66,-67,-59,-68
2023-12-08 00:46:11,-65,-64,-69,-60,-65,-64,-60,-67,-62,-67,-66,-63,-68,-64,-64,-64
2023-12-08 00:46:11,-58,-68,-63,-64,-69,-60,-67,-66,-65,-69,-61,-65,-64,-60,-63,-57
2023-12-08 00:46:11,-59,-59,-54,-61,-57,-61,-62,-54,-61,-60,-61,-67,-59,-65,-63,-63
2023-12-08 00:46:11,-68,-63,-65,-64,-61,-69,-65,-68,-66,-61,-69,-65,-66,-69,-61,-68
2023-12-08 00:46:11,-63,-61,-64,-57,-62,-61,-60,-66,-62,-67,-66,-62,-68,-63,-66,-66
2023-12-08 00:46:11,-59,-69,-65,-65,-69,-60,-67,-67,-65,-68,-61,-64,-65,-60,-68,-63
2023-12-08 00:46:11,-67,-66,-60,-66,-60,-65,-66,-60,-68,-65,-67,-73,-61,-65,-62,-63
2023-12-08 00:46:11,-67,-63,-65,-64,-62,-66,-60,-63,-63,-60,-68,-65,-63,-68,-59,-68
2023-12-08 00:46:11,-65,-64,-67,-59,-64,-65,-61,-67,-62,-64,-64,-60,-64,-60,-61,-64
2023-12-08 00:46:11,-57,-65,-60,-62,-67,-60,-66,-65,-61,-68,-60,-65,-64,-60,-65,-60
2023-12-08 00:46:11,-65,-65,-62,-69,-65,-66,-67,-58,-67,-61,-62,-66,-56,-63,-63,-60
2023-12-08 00:46:12,-65,-58,-63,-64,-61,-67,-63,-68,-69,-63,-72,-66,-68,-74,-65,-69
2023-12-08 00:46:12,-65,-62,-68,-61,-69,-68,-65,-70,-62,-67,-65,-60,-66,-63,-64,-65
2023-12-08 00:46:12,-59,-69,-63,-66,-68,-61,-67,-69,-67,-72,-64,-68,-69,-63,-67,-59
2023-12-08 00:46:12,-59,-60,-54,-61,-59,-60,-62,-52,-61,-58,-58,-62,-56,-59,-57,-52
2023-12-08 00:46:12,-58,-52,-54,-54,-50,-59,-56,-60,-62,-57,-70,-65,-67,-71,-63,-69
2023-12-08 00:46:12,-65,-61,-65,-57,-64,-64,-62,-67,-61,-64,-65,-60,-68,-61,-65,-66
2023-12-08 00:46:12,-61,-68,-64,-63,-69,-57,-65,-63,-59,-61,-57,-61,-64,-58,-63,-57
2023-12-08 00:46:12,-60,-63,-57,-67,-62,-63,-65,-60,-68,-65,-63,-67,-60,-66,-64,-61
2023-12-08 00:46:12,-65,-61,-64,-66,-62,-66,-59,-61,-63,-56,-64,-61,-59,-61,-53,-61
2023-12-08 00:46:12,-61,-59,-64,-57,-60,-62,-60,-64,-59,-62,-62,-58,-65,-61,-66,-66
2023-12-08 00:46:13,-61,-68,-65,-65,-69,-57,-67,-67,-65,-69,-62,-66,-66,-61,-66,-63
2023-12-08 00:46:13,-66,-69,-60,-70,-66,-68,-68,-59,-63,-62,-61,-65,-58,-65,-64,-61
2023-12-08 00:46:13,-66,-60,-63,-63,-59,-66,-61,-65,-67,-59,-66,-63,-66,-70,-58,-66
2023-12-08 00:46:13,-62,-60,-66,-62,-66,-65,-60,-63,-60,-63,-63,-55,-64,-63,-64,-68
2023-12-08 00:46:13,-58,-66,-61,-62,-66,-58,-65,-66,-62,-66,-59,-63,-64,-60,-67,-63
2023-12-08 00:46:13,-65,-65,-57,-64,-62,-61,-64,-54,-63,-61,-57,-65,-59,-63,-62,-59
2023-12-08 00:46:13,-65,-61,-64,-61,-55,-63,-61,-64,-66,-58,-65,-61,-61,-66,-58,-65
2023-12-08 00:46:13,-65,-59,-64,-59,-63,-66,-63,-66,-61,-64,-66,-59,-65,-61,-60,-65
2023-12-08 00:46:13,-57,-65,-62,-62,-68,-60,-65,-64,-60,-65,-61,-64,-64,-60,-66,-62
2023-12-08 00:46:13,-62,-63,-54,-64,-62,-62,-65,-61,-67,-67,-66,-69,-63,-64,-62,-59
2023-12-08 00:46:14,-67,-63,-65,-63,-57,-63,-57,-59,-63,-53,-61,-57,-51,-55,-48,-52
2023-12-08 00:46:14,-47,-46,-51,-45,-51,-51,-48,-55,-48,-52,-55,-51,-57,-56,-56,-58
2023-12-08 00:46:14,-51,-58,-56,-53,-59,-55,-61,-61,-60,-64,-60,-63,-65,-62,-69,-66
2023-12-08 00:46:14,-67,-68,-63,-73,-70,-70,-75,-64,-69,-68,-67,-72,-64,-68,-65,-60
2023-12-08 00:46:14,-67,-62,-65,-67,-60,-67,-63,-63,-66,-58,-68,-66,-66,-69,-61,-66
2023-12-08 00:46:14,-67,-64,-68,-63,-67,-68,-63,-70,-67,-70,-71,-64,-72,-67,-67,-72
2023-12-08 00:46:14,-63,-70,-67,-66,-66,-59,-63,-64,-62,-67,-62,-63,-65,-61,-69,-64
2023-12-08 00:46:14,-66,-70,-60,-68,-65,-65,-71,-60,-67,-65,-63,-66,-61,-65,-66,-63
2023-12-08 00:46:14,-68,-62,-65,-65,-62,-73,-67,-67,-69,-60,-67,-63,-62,-66,-60,-63
2023-12-08 00:46:14,-62,-58,-65,-60,-65,-64,-61,-68,-62,-64,-67,-61,-69,-64,-62,-65
2023-12-08 00:46:15,-57,-66,-66,-65,-68,-61,-65,-67,-64,-70,-65,-65,-66,-60,-67,-62
2023-12-08 00:46:15,-64,-66,-58,-64,-64,-64,-70,-60,-64,-64,-60,-66,-60,-64,-64,-59
2023-12-08 00:46:15,-67,-63,-65,-68,-60,-68,-62,-62,-68,-58,-66,-62,-61,-65,-60,-63
2023-12-08 00:46:15,-65,-62,-69,-63,-66,-65,-61,-69,-65,-63,-65,-59,-69,-66,-64,-66
2023-12-08 00:46:15,-57,-62,-64,-59,-67,-61,-63,-63,-58,-66,-62,-64,-67,-61,-70,-66
2023-12-08 00:46:15,-66,-65,-58,-67,-66,-65,-67,-60,-63,-65,-59,-65,-58,-63,-64,-60
2023-12-08 00:46:15,-68,-62,-63,-63,-58,-66,-62,-63,-68,-61,-69,-68,-64,-67,-62,-67
2023-12-08 00:46:15,-67,-63,-69,-65,-68,-69,-61,-69,-65,-62,-65,-58,-65,-64,-60,-64
2023-12-08 00:46:15,-59,-65,-64,-60,-64,-60,-65,-65,-62,-70,-67,-68,-67,-61,-70,-67
2023-12-08 00:46:15,-68,-72,-63,-70,-65,-61,-65,-61,-66,-65,-61,-67,-62,-65,-66,-58
2023-12-08 00:46:16,-69,-64,-65,-68,-59,-68,-66,-66,-72,-65,-71,-70,-66,-70,-64,-69
2023-12-08 00:46:16,-70,-64,-71,-65,-68,-67,-62,-70,-67,-65,-70,-61,-69,-66,-64,-65
2023-12-08 00:46:16,-61,-65,-64,-61,-67,-62,-63,-66,-60,-65,-59,-60,-65,-56,-62,-60
2023-12-08 00:46:16,-61,-65,-58,-63,-59,-58,-61,-56,-60,-60,-56,-61,-55,-57,-59,-51
2023-12-08 00:46:16,-59,-55,-54,-56,-51,-56,-53,-52,-58,-53,-62,-62,-61,-64,-55,-57
2023-12-08 00:46:16,-56,-53,-61,-57,-58,-61,-53,-62,-60,-56,-58,-53,-62,-60,-55,-60
2023-12-08 00:46:16,-56,-61,-61,-57,-66,-61,-64,-66,-58,-69,-65,-66,-70,-62,-70,-69
2023-12-08 00:46:16,-66,-72,-64,-71,-71,-67,-73,-66,-70,-69,-64,-74,-70,-71,-72,-69
2023-12-08 00:46:16,-77,-72,-71,-76,-69,-71,-67,-67,-74,-66,-74,-71,-66,-72,-66,-68
2023-12-08 00:46:17,-71,-63,-68,-62,-61,-63,-55,-64,-59,-61,-67,-61,-65,-62,-57,-62
2023-12-08 00:46:17,-54,-55,-58,-51,-57,-51,-50,-53,-47,-55,-51,-51,-55,-48,-57,-54
2023-12-08 00:46:17,-51,-54,-46,-54,-53,-49,-58,-50,-53,-55,-52,-59,-55,-55,-61,-52
2023-12-08 00:46:17,-64,-62,-63,-67,-61,-68,-67,-63,-67,-63,-67,-69,-65,-69,-64,-67
2023-12-08 00:46:17,-68,-61,-69,-64,-64,-69,-61,-69,-67,-65,-66,-60,-66,-65,-61,-67
2023-12-08 00:46:17,-63,-66,-66,-60,-68,-65,-67,-68,-61,-67,-63,-63,-69,-59,-66,-64
2023-12-08 00:46:17,-63,-68,-61,-66,-67,-63,-68,-64,-67,-70,-64,-70,-65,-65,-68,-60
2023-12-08 00:46:17,-66,-64,-62,-66,-57,-62,-63,-61,-65,-61,-64,-64,-59,-65,-62,-65
2023-12-08 00:46:17,-67,-60,-68,-63,-64,-68,-59,-68,-67,-64,-68,-63,-68,-66,-63,-69
2023-12-08 00:46:17,-65,-65,-67,-62,-71,-64,-62,-62,-57,-67,-65,-65,-68,-61,-66,-64
2023-12-08 00:46:18,-59,-63,-59,-63,-66,-60,-66,-61,-63,-66,-59,-66,-62,-64,-69,-61
2023-12-08 00:46:18,-67,-65,-64,-69,-63,-65,-63,-59,-65,-62,-66,-66,-58,-68,-64,-64
2023-12-08 00:46:18,-68,-60,-68,-65,-61,-65,-58,-64,-64,-60,-67,-61,-65,-65,-62,-67
2023-12-08 00:46:18,-63,-65,-67,-60,-69,-64,-64,-69,-62,-70,-69,-67,-71,-64,-71,-71
2023-12-08 00:46:18,-66,-71,-66,-66,-69,-65,-75,-68,-69,-72,-68,-76,-73,-75,-80,-73
2023-12-08 00:46:18,-79,-79,-76,-81,-72,-76,-75,-72,-77,-73,-73,-76,-72,-79,-73,-75
2023-12-08 00:46:18,-79,-73,-76,-73,-68,-76,-68,-70,-69,-64,-70,-61,-59,-61,-52,-57
2023-12-08 00:46:18,-52,-52,-55,-47,-54,-51,-54,-58,-49,-58,-55,-55,-61,-58,-59,-57
2023-12-08 00:46:18,-52,-59,-53,-58,-59,-51,-58,-56,-57,-64,-56,-63,-58,-55,-61,-54
2023-12-08 00:46:18,-59,-59,-55,-61,-55,-60,-60,-55,-60,-56,-57,-60,-51,-60,-58,-57
2023-12-08 00:46:19,-60,-53,-58,-56,-55,-60,-55,-57,-56,-54,-60,-56,-60,-61,-54,-63
2023-12-08 00:46:19,-60,-60,-65,-56,-63,-62,-60,-65,-57,-59,-62,-59,-65,-59,-62,-62
2023-12-08 00:46:19,-58,-64,-60,-63,-65,-57,-64,-61,-62,-66,-54,-62,-61,-60,-65,-58
2023-12-08 00:46:19,-62,-61,-57,-65,-61,-64,-67,-61,-68,-63,-60,-63,-58,-64,-61,-61
2023-12-08 00:46:19,-66,-60,-64,-64,-58,-62,-58,-62,-65,-61,-68,-62,-62,-64,-58,-65
2023-12-08 00:46:19,-60,-59,-62,-55,-63,-63,-58,-65,-58,-62,-61,-59,-65,-61,-64,-64
2023-12-08 00:46:19,-58,-65,-61,-60,-62,-55,-63,-63,-62,-68,-60,-68,-66,-65,-73,-69
2023-12-08 00:46:19,-71,-71,-64,-74,-67,-69,-72,-66,-73,-66,-63,-64,-54,-60,-58,-55
2023-12-08 00:46:19,-59,-52,-56,-57,-55,-59,-53,-57,-60,-55,-61,-56,-58,-60,-52,-61
2023-12-08 00:46:20,-58,-56,-59,-54,-59,-58,-54,-59,-52,-56,-57,-54,-62,-55,-60,-61
2023-12-08 00:46:20,-52,-63,-61,-61,-64,-56,-65,-65,-63,-67,-59,-62,-61,-59,-66,-60
2023-12-08 00:46:20,-61,-61,-57,-68,-65,-65,-64,-56,-66,-65,-63,-67,-56,-63,-64,-61
2023-12-08 00:46:20,-67,-60,-63,-61,-57,-62,-57,-61,-63,-57,-64,-61,-62,-66,-56,-62
2023-12-08 00:46:20,-61,-59,-65,-58,-60,-59,-56,-64,-59,-61,-61,-56,-64,-62,-64,-66
2023-12-08 00:46:20,-57,-64,-62,-63,-67,-57,-64,-63,-61,-65,-60,-64,-64,-59,-65,-61
2023-12-08 00:46:20,-65,-65,-57,-66,-61,-61,-66,-58,-66,-64,-63,-67,-61,-63,-63,-59
2023-12-08 00:46:20,-66,-58,-63,-64,-61,-66,-61,-61,-64,-58,-65,-59,-58,-63,-56,-65
2023-12-08 00:46:20,-63,-59,-63,-57,-61,-61,-59,-65,-59,-62,-64,-54,-66,-63,-64,-68
2023-12-08 00:46:20,-59,-64,-63,-60,-65,-60,-65,-64,-59,-64,-58,-63,-62,-59,-64,-61
2023-12-08 00:46:20,-63,-64,-57,-66,-62,-63,-66,-57,-64,-62,-60,-64,-59,-63,-63,-58
2023-12-08 00:46:21,-62,-58,-63,-64,-59,-65,-61,-61,-67,-59,-67,-64,-63,-67,-62,-66
2023-12-08 00:46:21,-64,-61,-63,-57,-60,-62,-57,-64,-58,-65,-66,-59,-65,-62,-62,-65
2023-12-08 00:46:21,-56,-61,-61,-58,-65,-58,-62,-62,-61,-66,-60,-61,-62,-57,-68,-63
2023-12-08 00:46:21,-64,-68,-60,-67,-65,-61,-65,-56,-61,-62,-60,-64,-59,-63,-64,-60
2023-12-08 00:46:21,-67,-64,-64,-65,-55,-64,-59,-60,-64,-57,-64,-63,-59,-65,-58,-60
2023-12-08 00:46:21,-62,-58,-63,-58,-60,-62,-57,-65,-60,-62,-66,-60,-66,-62,-61,-65
2023-12-08 00:46:21,-58,-62,-62,-59,-64,-59,-63,-64,-60,-65,-60,-64,-67,-62,-69,-66
2023-12-08 00:46:21,-65,-68,-58,-65,-65,-62,-66,-59,-62,-62,-59,-65,-59,-63,-63,-55
2023-12-08 00:46:21,-63,-59,-60,-64,-58,-64,-62,-62,-65,-58,-62,-62,-59,-64,-58,-63
2023-12-08 00:46:21,-63,-59,-66,-59,-61,-62,-56,-64,-62,-60,-63,-56,-63,-63,-60,-66
2023-12-08 00:46:21,-61,-64,-64,-58,-63,-58,-61,-63,-58,-66,-62,-61,-64,-56,-64,-62
2023-12-08 00:46:22,-61,-65,-57,-62,-62,-59,-65,-58,-62,-61,-58,-65,-59,-60,-63,-58
2023-12-08 00:46:22,-68,-65,-64,-68,-59,-64,-63,-61,-66,-61,-65,-64,-61,-69,-66,-69
2023-12-08 00:46:22,-69,-62,-71,-67,-70,-72,-66,-73,-71,-71,-75,-64,-70,-68,-61,-64
2023-12-08 00:46:22,-58,-60,-60,-54,-60,-53,-56,-59,-53,-59,-55,-56,-60,-53,-60,-59
2023-12-08 00:46:22,-58,-63,-56,-59,-58,-55,-59,-54,-58,-60,-55,-64,-59,-61,-65,-59
2023-12-08 00:46:22,-67,-64,-62,-66,-57,-63,-60,-57,-62,-58,-61,-63,-60,-65,-60,-61
2023-12-08 00:46:22,-65,-57,-66,-62,-62,-65,-55,-60,-59,-58,-63,-57,-58,-57,-55,-62
2023-12-08 00:46:22,-59,-61,-62,-57,-66,-62,-64,-67,-58,-65,-62,-64,-72,-61,-67,-66
2023-12-08 00:46:22,-62,-69,-63,-68,-69,-61,-70,-65,-67,-71,-64,-72,-66,-62,-68,-59
2023-12-08 00:46:22,-66,-64,-61,-64,-59,-62,-62,-59,-66,-62,-64,-62,-57,-69,-64,-69
2023-12-08 00:46:23,-70,-65,-70,-68,-66,-71,-60,-64,-65,-61,-65,-59,-60,-60,-55,-60
2023-12-08 00:46:23,-56,-59,-62,-56,-64,-63,-62,-66,-57,-66,-66,-67,-70,-64,-64,-65
2023-12-08 00:46:23,-59,-62,-58,-60,-61,-56,-64,-62,-62,-64,-55,-62,-59,-57,-60,-53
2023-12-08 00:46:23,-58,-57,-54,-60,-55,-61,-62,-59,-66,-61,-63,-65,-59,-71,-67,-65
2023-12-08 00:46:23,-67,-59,-67,-64,-62,-65,-59,-63,-65,-61,-68,-63,-65,-67,-62,-70
2023-12-08 00:46:23,-64,-64,-64,-58,-63,-62,-61,-66,-57,-62,-63,-59,-63,-58,-64,-63
2023-12-08 00:46:23,-61,-67,-61,-65,-66,-58,-68,-64,-64,-68,-59,-64,-63,-59,-65,-61
2023-12-08 00:46:23,-65,-63,-59,-64,-59,-64,-65,-59,-65,-61,-62,-66,-56,-64,-61,-62
2023-12-08 00:46:23,-64,-56,-62,-63,-59,-65,-57,-62,-62,-60,-66,-61,-63,-63,-56,-66
2023-12-08 00:46:23,-63,-62,-65,-58,-64,-64,-63,-68,-63,-66,-66,-61,-66,-61,-64,-64
2023-12-08 00:46:23,-58,-67,-63,-64,-65,-56,-66,-61,-64,-65,-56,-61,-62,-59,-65,-58
2023-12-08 00:46:24,-62,-63,-63,-68,-62,-63,-64,-58,-68,-63,-64,-66,-59,-65,-65,-65
2023-12-08 00:46:24,-70,-61,-63,-63,-60,-66,-59,-60,-61,-56,-63,-59,-62,-66,-59,-66
2023-12-08 00:46:24,-61,-61,-64,-56,-64,-65,-61,-67,-59,-61,-62,-59,-68,-62,-63,-65
2023-12-08 00:46:24,-57,-69,-63,-62,-64,-57,-66,-64,-62,-65,-58,-61,-62,-60,-66,-61
2023-12-08 00:46:24,-64,-63,-58,-65,-61,-62,-63,-56,-63,-60,-62,-66,-58,-62,-60,-57
2023-12-08 00:46:24,-63,-57,-60,-60,-57,-66,-60,-63,-62,-56,-65,-61,-62,-66,-58,-65
2023-12-08 00:46:24,-62,-63,-67,-61,-64,-62,-58,-65,-62,-65,-64,-57,-62,-58,-61,-63
2023-12-08 00:46:24,-57,-64,-63,-64,-68,-59,-65,-62,-61,-66,-60,-63,-61,-57,-64,-59
2023-12-08 00:46:24,-62,-61,-56,-66,-63,-61,-64,-58,-65,-64,-61,-66,-60,-65,-65,-61
2023-12-08 00:46:24,-65,-61,-64,-66,-60,-66,-61,-64,-65,-60,-68,-64,-64,-67,-56,-66
2023-12-08 00:46:24,-65,-60,-65,-58,-63,-64,-59,-64,-61,-63,-68,-60,-69,-62,-62,-65
2023-12-08 00:46:25,-56,-63,-61,-60,-67,-61,-65,-63,-59,-67,-61,-66,-66,-61,-68,-64
2023-12-08 00:46:25,-65,-69,-61,-69,-64,-64,-71,-61,-70,-65,-62,-67,-62,-67,-66,-61
2023-12-08 00:46:25,-66,-60,-62,-64,-56,-62,-57,-58,-62,-54,-62,-57,-56,-61,-54,-60
2023-12-08 00:46:25,-60,-58,-63,-56,-58,-59,-54,-63,-57,-59,-61,-52,-60,-55,-54,-59
2023-12-08 00:46:25,-49,-55,-54,-54,-62,-54,-59,-55,-53,-57,-52,-57,-60,-53,-63,-59
2023-12-08 00:46:25,-61,-65,-57,-63,-61,-59,-64,-60,-66,-66,-62,-68,-62,-68,-66,-61
2023-12-08 00:46:25,-68,-63,-65,-66,-60,-69,-63,-65,-72,-63,-69,-66,-63,-67,-61,-65
2023-12-08 00:46:25,-64,-60,-66,-59,-62,-64,-56,-64,-60,-61,-64,-58,-67,-66,-66,-70
2023-12-08 00:46:25,-63,-70,-70,-66,-70,-65,-70,-70,-63,-69,-64,-66,-67,-59,-66,-61
2023-12-08 00:46:25,-63,-66,-55,-64,-62,-61,-65,-58,-59,-61,-57,-64,-58,-63,-62,-57
2023-12-08 00:46:25,-64,-61,-62,-67,-58,-63,-59,-60,-68,-61,-66,-65,-59,-67,-61,-64
2023-12-08 00:46:26,-64,-61,-66,-63,-63,-62,-54,-60,-59,-60,-64,-55,-63,-61,-60,-63
2023-12-08 00:46:26,-59,-64,-67,-62,-66,-59,-63,-66,-62,-70,-64,-64,-67,-58,-66,-62
2023-12-08 00:46:26,-63,-69,-59,-66,-66,-61,-65,-59,-62,-63,-60,-64,-60,-64,-63,-57
2023-12-08 00:46:26,-65,-63,-63,-67,-58,-65,-65,-64,-68,-61,-64,-64,-59,-64,-59,-62
2023-12-08 00:46:26,-64,-60,-68,-63,-64,-66,-60,-69,-66,-67,-73,-62,-67,-65,-62,-68
2023-12-08 00:46:26,-62,-65,-65,-60,-64,-58,-62,-65,-60,-69,-64,-63,-67,-59,-66,-65
2023-12-08 00:46:26,-62,-65,-58,-64,-65,-62,-67,-60,-64,-65,-61,-70,-63,-65,-66,-60
2023-12-08 00:46:26,-66,-61,-59,-63,-55,-62,-62,-60,-64,-56,-59,-57,-51,-56,-52,-52
2023-12-08 00:46:26,-56,-49,-58,-51,-52,-55,-47,-58,-53,-53,-58,-51,-58,-56,-53,-61
2023-12-08 00:46:26,-58,-59,-64,-58,-66,-59,-64,-68,-62,-69,-62,-59,-64,-54,-65,-65
2023-12-08 00:46:27,-61,-65,-60,-64,-65,-60,-66,-62,-65,-65,-56,-64,-61,-60,-64,-55
2023-12-08 00:46:27,-64,-64,-61,-64,-56,-60,-59,-56,-62,-58,-61,-63,-57,-64,-59,-64
2023-12-08 00:46:27,-65,-58,-64,-63,-63,-67,-56,-63,-63,-61,-67,-60,-63,-64,-61,-66
2023-12-08 00:46:27,-59,-61,-65,-62,-70,-63,-59,-60,-54,-63,-64,-63,-66,-59,-63,-62
2023-12-08 00:46:27,-59,-65,-60,-61,-63,-57,-66,-58,-63,-63,-59,-66,-62,-61,-64,-54
2023-12-08 00:46:27,-62,-62,-62,-67,-61,-63,-62,-61,-68,-63,-64,-63,-57,-68,-65,-66
2023-12-08 00:46:27,-67,-57,-62,-61,-62,-68,-61,-65,-65,-61,-67,-62,-66,-67,-61,-65
2023-12-08 00:46:27,-62,-65,-68,-61,-69,-65,-66,-71,-61,-66,-65,-65,-69,-62,-66,-66
2023-12-08 00:46:27,-63,-69,-63,-65,-68,-61,-68,-63,-61,-65,-59,-66,-64,-62,-65,-58
2023-12-08 00:46:27,-64,-66,-60,-67,-61,-66,-66,-60,-66,-63,-66,-66,-58,-66,-64,-65
2023-12-08 00:46:27,-70,-62,-67,-65,-63,-67,-61,-65,-66,-61,-67,-61,-61,-63,-56,-68
2023-12-08 00:46:28,-63,-63,-66,-61,-68,-66,-61,-65,-54,-60,-59,-59,-65,-60,-65,-65
2023-12-08 00:46:28,-61,-68,-62,-66,-69,-62,-68,-63,-62,-68,-58,-68,-65,-64,-67,-61
2023-12-08 00:46:28,-68,-69,-64,-68,-62,-64,-62,-57,-67,-63,-63,-64,-57,-64,-61,-61
2023-12-08 00:46:28,-66,-57,-63,-60,-59,-65,-61,-63,-61,-58,-63,-61,-64,-63,-56,-63
2023-12-08 00:46:28,-60,-60,-65,-55,-62,-61,-59,-65,-59,-62,-63,-60,-67,-61,-64,-65
2023-12-08 00:46:28,-58,-66,-61,-62,-65,-59,-65,-61,-60,-66,-58,-67,-65,-61,-67,-61
2023-12-08 00:46:28,-65,-65,-61,-66,-62,-65,-67,-61,-71,-65,-64,-67,-59,-65,-63,-60
2023-12-08 00:46:28,-64,-60,-63,-62,-59,-63,-57,-61,-62,-60,-68,-64,-64,-66,-60,-68
2023-12-08 00:46:28,-65,-65,-69,-59,-66,-65,-65,-69,-61,-64,-64,-62,-68,-62,-63,-67
2023-12-08 00:46:28,-60,-69,-65,-63,-65,-58,-65,-64,-61,-67,-61,-64,-64,-59,-66,-60
2023-12-08 00:46:28,-63,-61,-58,-65,-63,-64,-63,-59,-65,-62,-64,-68,-60,-64,-62,-58
2023-12-08 00:46:29,-64,-59,-65,-64,-61,-66,-60,-61,-63,-56,-68,-64,-63,-65,-59,-66
2023-12-08 00:46:29,-65,-64,-66,-60,-65,-66,-61,-67,-63,-69,-70,-64,-70,-65,-65,-64
2023-12-08 00:46:29,-55,-63,-60,-61,-64,-53,-62,-61,-59,-62,-56,-58,-61,-56,-63,-57
2023-12-08 00:46:29,-62,-63,-57,-64,-59,-60,-63,-57,-64,-60,-61,-65,-57,-63,-62,-59
2023-12-08 00:46:29,-67,-60,-65,-65,-64,-68,-64,-64,-66,-60,-65,-59,-60,-62,-52,-60
2023-12-08 00:46:29,-61,-58,-63,-57,-60,-61,-59,-63,-60,-62,-64,-57,-65,-61,-61,-64
2023-12-08 00:46:29,-57,-62,-60,-62,-66,-58,-65,-64,-61,-67,-61,-65,-65,-61,-66,-63
2023-12-08 00:46:29,-65,-66,-60,-67,-63,-64,-67,-58,-64,-63,-61,-68,-60,-61,-61,-58
2023-12-08 00:46:29,-64,-58,-61,-62,-58,-65,-61,-62,-65,-57,-65,-63,-62,-66,-56,-65
2023-12-08 00:46:29,-66,-63,-65,-60,-66,-68,-64,-67,-60,-64,-67,-61,-71,-65,-63,-67
2023-12-08 00:46:30,-58,-65,-63,-59,-65,-61,-66,-64,-60,-64,-59,-63,-66,-61,-68,-63
2023-12-08 00:46:30,-63,-65,-59,-67,-64,-64,-67,-55,-62,-65,-64,-67,-58,-61,-61,-60
2023-12-08 00:46:30,-67,-63,-64,-67,-60,-70,-64,-62,-66,-60,-68,-63,-61,-65,-58,-62
2023-12-08 00:46:30,-61,-58,-65,-62,-64,-66,-60,-65,-60,-61,-63,-55,-64,-61,-61,-63
2023-12-08 00:46:30,-54,-63,-65,-61,-65,-57,-61,-63,-60,-65,-63,-66,-68,-57,-68,-62
2023-12-08 00:46:30,-63,-66,-59,-65,-65,-61,-68,-60,-65,-64,-61,-66,-63,-66,-68,-65
2023-12-08 00:46:30,-71,-65,-63,-65,-59,-69,-63,-65,-74,-67,-72,-69,-66,-72,-63,-71
2023-12-08 00:46:30,-72,-69,-75,-70,-73,-74,-70,-76,-68,-68,-74,-68,-73,-67,-67,-70
2023-12-08 00:46:30,-63,-66,-65,-62,-66,-61,-64,-63,-57,-60,-56,-58,-57,-50,-56,-55
2023-12-08 00:46:30,-55,-60,-52,-60,-59,-57,-60,-54,-57,-55,-52,-58,-52,-57,-58,-55
2023-12-08 00:46:30,-60,-56,-56,-60,-53,-60,-57,-55,-59,-54,-59,-58,-55,-63,-59,-61
2023-12-08 00:46:31,-59,-55,-63,-60,-63,-63,-59,-68,-64,-64,-67,-61,-64,-64,-63,-67
2023-12-08 00:46:31,-59,-64,-63,-62,-65,-61,-64,-64,-62,-69,-65,-64,-66,-61,-68,-66
2023-12-08 00:46:31,-66,-72,-61,-68,-70,-69,-72,-64,-66,-67,-61,-67,-60,-63,-63,-58
2023-12-08 00:46:31,-64,-60,-57,-62,-55,-66,-61,-61,-63,-57,-63,-66,-62,-67,-57,-60
2023-12-08 00:46:31,-62,-60,-66,-62,-64,-67,-59,-66,-58,-61,-65,-56,-61,-60,-56,-61
2023-12-08 00:46:31,-56,-60,-60,-58,-62,-57,-61,-64,-58,-66,-62,-62,-67,-60,-66,-62
2023-12-08 00:46:31,-60,-68,-58,-65,-62,-60,-66,-61,-67,-67,-62,-65,-60,-64,-67,-57
2023-12-08 00:46:31,-66,-62,-64,-69,-62,-69,-66,-64,-66,-60,-65,-64,-61,-66,-60,-64
2023-12-08 00:46:31,-66,-59,-68,-61,-64,-67,-60,-67,-64,-64,-69,-58,-65,-64,-61,-65
2023-12-08 00:46:31,-59,-64,-65,-63,-66,-61,-63,-65,-60,-69,-64,-65,-67,-57,-64,-62
2023-12-08 00:46:31,-62,-65,-60,-61,-61,-60,-65,-60,-62,-63,-57,-62,-59,-59,-65,-56
2023-12-08 00:46:32,-64,-59,-61,-65,-58,-63,-61,-58,-63,-57,-61,-61,-58,-66,-62,-63
2023-12-08 00:46:32,-65,-57,-68,-64,-65,-66,-59,-65,-65,-63,-68,-63,-65,-64,-60,-66
2023-12-08 00:46:32,-61,-65,-64,-59,-65,-60,-61,-63,-58,-65,-62,-61,-66,-59,-66,-65
2023-12-08 00:46:32,-61,-67,-61,-65,-63,-59,-64,-60,-62,-62,-56,-66,-63,-63,-64,-57
2023-12-08 00:46:32,-65,-63,-60,-61,-54,-60,-61,-56,-63,-57,-62,-63,-60,-64,-57,-60
2023-12-08 00:46:32,-61,-54,-62,-58,-59,-62,-54,-60,-61,-59,-66,-57,-59,-59,-58,-63
2023-12-08 00:46:32,-59,-62,-64,-57,-66,-62,-65,-66,-59,-64,-62,-62,-69,-59,-68,-66
2023-12-08 00:46:32,-62,-68,-61,-65,-65,-60,-67,-62,-65,-67,-61,-69,-64,-63,-66,-59
2023-12-08 00:46:32,-66,-64,-62,-67,-61,-66,-66,-61,-67,-61,-65,-64,-60,-69,-63,-65
2023-12-08 00:46:32,-66,-61,-69,-65,-65,-66,-56,-65,-65,-63,-67,-57,-63,-65,-62,-69
2023-12-08 00:46:32,-65,-71,-70,-65,-74,-71,-74,-76,-68,-72,-71,-69,-74,-63,-69,-71
2023-12-08 00:46:33,-68,-73,-65,-67,-67,-60,-65,-59,-60,-61,-53,-62,-61,-63,-67,-59
2023-12-08 00:46:33,-65,-63,-60,-65,-59,-63,-62,-59,-63,-56,-59,-59,-53,-63,-60,-60
2023-12-08 00:46:33,-61,-54,-61,-62,-62,-67,-59,-66,-62,-59,-64,-61,-66,-65,-60,-65
2023-12-08 00:46:33,-62,-67,-66,-58,-67,-63,-63,-68,-59,-66,-65,-64,-67,-62,-65,-66
2023-12-08 00:46:33,-61,-66,-61,-63,-63,-57,-64,-60,-64,-67,-60,-66,-63,-63,-67,-57
2023-12-08 00:46:33,-65,-64,-62,-68,-59,-63,-64,-61,-68,-63,-65,-68,-61,-70,-61,-62
2023-12-08 00:46:33,-65,-58,-65,-64,-61,-65,-57,-62,-61,-60,-63,-61,-63,-66,-60,-67
2023-12-08 00:46:33,-62,-64,-66,-58,-66,-63,-64,-70,-59,-67,-66,-63,-68,-61,-66,-64
2023-12-08 00:46:33,-59,-66,-63,-65,-66,-57,-68,-66,-65,-66,-57,-64,-64,-64,-67,-60
2023-12-08 00:46:33,-67,-67,-63,-67,-60,-65,-66,-62,-67,-63,-65,-67,-59,-68,-62,-62
2023-12-08 00:46:34,-66,-57,-65,-65,-62,-67,-63,-67,-66,-62,-68,-64,-66,-66,-60,-70
2023-12-08 00:46:34,-65,-66,-65,-57,-65,-64,-64,-68,-57,-65,-62,-62,-66,-59,-63,-64
2023-12-08 00:46:34,-61,-65,-61,-64,-67,-58,-67,-62,-65,-72,-64,-70,-68,-66,-72,-62
2023-12-08 00:46:34,-69,-69,-67,-74,-67,-72,-71,-64,-71,-65,-69,-70,-61,-66,-59,-59
2023-12-08 00:46:34,-66,-56,-63,-59,-55,-61,-55,-60,-57,-55,-61,-58,-60,-63,-57,-66
2023-12-08 00:46:34,-61,-61,-62,-55,-62,-59,-56,-60,-53,-58,-59,-56,-63,-58,-61,-60
2023-12-08 00:46:34,-57,-62,-58,-62,-64,-56,-64,-62,-60,-67,-58,-66,-66,-63,-67,-59
2023-12-08 00:46:34,-63,-64,-59,-66,-60,-64,-63,-58,-67,-63,-66,-65,-61,-68,-66,-64
2023-12-08 00:46:34,-70,-60,-66,-64,-61,-67,-62,-67,-66,-62,-67,-62,-65,-66,-60,-69
2023-12-08 00:46:34,-65,-69,-75,-67,-72,-67,-66,-71,-63,-68,-69,-65,-69,-61,-61,-59
2023-12-08 00:46:35,-53,-61,-55,-56,-60,-54,-63,-60,-59,-62,-54,-61,-58,-55,-60,-55
2023-12-08 00:46:35,-58,-58,-55,-59,-54,-56,-57,-51,-62,-58,-61,-66,-59,-64,-61,-61
2023-12-08 00:46:35,-69,-59,-66,-64,-62,-66,-60,-64,-63,-60,-68,-64,-67,-67,-60,-67
2023-12-08 00:46:35,-62,-60,-65,-55,-62,-62,-62,-68,-59,-60,-59,-56,-63,-56,-58,-59
2023-12-08 00:46:35,-53,-61,-58,-57,-62,-52,-62,-55,-52,-56,-49,-55,-52,-51,-58,-51
2023-12-08 00:46:35,-58,-56,-52,-60,-55,-59,-61,-53,-60,-56,-58,-64,-53,-63,-61,-62
2023-12-08 00:46:35,-69,-62,-66,-63,-64,-71,-66,-71,-68,-61,-73,-68,-69,-68,-60,-67
2023-12-08 00:46:35,-65,-64,-68,-59,-65,-64,-59,-64,-59,-66,-66,-61,-67,-61,-65,-69
2023-12-08 00:46:35,-61,-70,-62,-63,-68,-61,-66,-64,-63,-70,-58,-64,-63,-61,-67,-60
2023-12-08 00:46:35,-65,-65,-61,-67,-62,-65,-65,-56,-68,-63,-64,-68,-58,-64,-61,-59
2023-12-08 00:46:35,-63,-57,-62,-61,-58,-64,-55,-59,-59,-54,-64,-59,-64,-66,-56,-62
2023-12-08 00:46:36,-60,-61,-67,-57,-65,-62,-60,-67,-61,-65,-64,-59,-66,-61,-65,-68
2023-12-08 00:46:36,-61,-70,-65,-66,-71,-61,-67,-63,-63,-66,-58,-66,-66,-64,-72,-67
2023-12-08 00:46:36,-70,-68,-63,-73,-67,-68,-69,-65,-71,-69,-69,-72,-63,-69,-69,-69
2023-12-08 00:46:36,-74,-66,-69,-70,-65,-72,-63,-65,-64,-58,-65,-60,-60,-62,-55,-62
2023-12-08 00:46:36,-60,-58,-63,-55,-63,-60,-58,-63,-56,-60,-60,-56,-62,-55,-58,-60
2023-12-08 00:46:36,-53,-60,-57,-59,-63,-54,-61,-61,-62,-66,-60,-63,-62,-57,-63,-57
2023-12-08 00:46:36,-62,-61,-56,-63,-59,-60,-64,-56,-64,-62,-62,-64,-57,-62,-62,-60
2023-12-08 00:46:36,-64,-58,-61,-63,-60,-64,-61,-62,-64,-58,-66,-62,-61,-64,-55,-65
2023-12-08 00:46:36,-64,-64,-66,-58,-62,-62,-61,-68,-64,-66,-65,-62,-70,-67,-69,-69
2023-12-08 00:46:36,-63,-75,-68,-68,-69,-62,-70,-70,-68,-71,-65,-67,-65,-60,-66,-60
2023-12-08 00:46:36,-61,-58,-54,-63,-62,-62,-65,-58,-65,-59,-61,-66,-60,-64,-62,-60
2023-12-08 00:46:37,-66,-58,-61,-60,-57,-62,-57,-60,-64,-59,-66,-60,-61,-63,-56,-63
2023-12-08 00:46:37,-61,-61,-66,-58,-63,-59,-56,-62,-59,-63,-64,-60,-64,-62,-65,-65
2023-12-08 00:46:37,-59,-66,-63,-62,-66,-55,-64,-64,-62,-66,-61,-65,-65,-61,-68,-63
2023-12-08 00:46:37,-66,-65,-56,-65,-59,-63,-68,-60,-67,-62,-60,-68,-59,-67,-67,-63
2023-12-08 00:46:37,-70,-62,-66,-65,-60,-67,-63,-67,-69,-61,-69,-61,-63,-70,-62,-66
2023-12-08 00:46:37,-63,-61,-69,-63,-65,-61,-60,-65,-61,-65,-65,-60,-66,-62,-63,-65
2023-12-08 00:46:37,-58,-66,-64,-65,-68,-58,-66,-66,-63,-67,-60,-65,-65,-61,-68,-64
2023-12-08 00:46:37,-70,-68,-63,-69,-68,-71,-75,-66,-74,-69,-69,-70,-60,-64,-64,-61
2023-12-08 00:46:37,-64,-59,-63,-65,-63,-69,-62,-63,-64,-59,-66,-60,-59,-61,-52,-61
2023-12-08 00:46:37,-59,-56,-62,-55,-59,-58,-55,-61,-55,-61,-63,-57,-64,-59,-61,-64
2023-12-08 00:46:37,-57,-68,-65,-64,-68,-59,-64,-64,-64,-70,-63,-69,-71,-66,-72,-67
2023-12-08 00:46:38,-69,-71,-67,-76,-67,-67,-71,-63,-73,-66,-64,-66,-57,-62,-62,-55
2023-12-08 00:46:38,-61,-54,-61,-63,-59,-65,-58,-62,-66,-59,-69,-64,-63,-67,-60,-68
2023-12-08 00:46:38,-65,-64,-67,-61,-66,-65,-60,-64,-58,-62,-64,-59,-65,-62,-66,-68
2023-12-08 00:46:38,-58,-65,-61,-60,-66,-58,-66,-67,-63,-67,-61,-65,-62,-57,-62,-58
2023-12-08 00:46:38,-63,-67,-57,-67,-61,-63,-68,-59,-64,-62,-60,-67,-60,-63,-63,-58
2023-12-08 00:46:38,-65,-58,-64,-63,-58,-64,-62,-63,-66,-56,-63,-58,-60,-64,-59,-67
2023-12-08 00:46:38,-63,-61,-64,-60,-63,-64,-61,-66,-62,-63,-64,-57,-66,-61,-63,-67
2023-12-08 00:46:38,-58,-67,-63,-62,-66,-58,-64,-64,-60,-65,-59,-65,-64,-60,-64,-61
2023-12-08 00:46:38,-62,-65,-56,-65,-61,-64,-68,-61,-65,-63,-61,-66,-60,-62,-65,-59
2023-12-08 00:46:38,-66,-57,-61,-62,-57,-64,-59,-62,-65,-58,-65,-62,-62,-65,-58,-63
2023-12-08 00:46:38,-63,-59,-65,-60,-63,-65,-61,-68,-59,-63,-63,-58,-64,-60,-60,-66
2023-12-08 00:46:39,-58,-67,-64,-64,-67,-58,-62,-63,-58,-64,-58,-64,-63,-58,-63,-58
2023-12-08 00:46:39,-62,-65,-58,-67,-62,-63,-68,-59,-67,-64,-62,-67,-60,-62,-65,-60
2023-12-08 00:46:39,-66,-57,-60,-60,-60,-67,-63,-62,-65,-55,-65,-63,-62,-65,-57,-65
2023-12-08 00:46:39,-64,-64,-68,-60,-64,-63,-61,-67,-63,-64,-65,-59,-67,-62,-61,-66
2023-12-08 00:46:39,-59,-66,-62,-61,-65,-58,-63,-63,-59,-66,-61,-64,-64,-61,-66,-61
2023-12-08 00:46:39,-63,-65,-58,-67,-62,-61,-65,-55,-63,-61,-58,-62,-54,-57,-56,-54
2023-12-08 00:46:39,-59,-52,-56,-60,-56,-65,-61,-60,-62,-54,-60,-61,-60,-66,-57,-65
2023-12-08 00:46:39,-63,-61,-66,-59,-65,-65,-63,-67,-61,-64,-64,-56,-64,-59,-60,-65
2023-12-08 00:46:39,-58,-66,-65,-62,-67,-60,-66,-67,-64,-70,-64,-66,-64,-60,-67,-61
2023-12-08 00:46:39,-63,-67,-61,-69,-65,-62,-69,-59,-68,-65,-64,-68,-61,-67,-68,-63
2023-12-08 00:46:39,-68,-62,-65,-67,-62,-71,-65,-64,-65,-58,-65,-63,-61,-67,-56,-64
2023-12-08 00:46:40,-64,-62,-70,-62,-66,-66,-62,-72,-65,-69,-71,-62,-72,-66,-66,-71
2023-12-08 00:46:40,-62,-68,-67,-64,-70,-60,-66,-67,-64,-67,-58,-62,-63,-59,-69,-64
2023-12-08 00:46:40,-67,-67,-60,-68,-65,-66,-69,-60,-67,-66,-62,-66,-59,-66,-67,-60
2023-12-08 00:46:40,-63,-58,-64,-67,-60,-67,-61,-62,-68,-61,-69,-65,-66,-70,-60,-64
2023-12-08 00:46:40,-62,-62,-68,-61,-64,-64,-62,-67,-61,-65,-66,-56,-66,-62,-61,-65
2023-12-08 00:46:40,-56,-62,-60,-61,-70,-56,-63,-63,-61,-67,-59,-60,-61,-57,-67,-60
2023-12-08 00:46:40,-63,-65,-56,-66,-61,-60,-65,-57,-62,-63,-60,-66,-56,-64,-63,-60
2023-12-08 00:46:40,-65,-58,-61,-65,-56,-66,-60,-60,-64,-54,-61,-58,-56,-64,-53,-62
2023-12-08 00:46:40,-59,-58,-65,-57,-62,-62,-58,-63,-58,-61,-64,-56,-67,-60,-57,-62
2023-12-08 00:46:40,-53,-61,-59,-58,-65,-54,-60,-60,-59,-66,-62,-64,-62,-57,-68,-62
2023-12-08 00:46:41,-62,-67,-56,-67,-62,-59,-65,-56,-64,-62,-60,-66,-60,-64,-65,-61
2023-12-08 00:46:41,-69,-62,-63,-65,-59,-68,-61,-61,-67,-60,-67,-65,-63,-68,-58,-62
2023-12-08 00:46:41,-64,-61,-67,-61,-65,-65,-61,-69,-63,-67,-66,-59,-67,-61,-62,-67
2023-12-08 00:46:41,-59,-64,-59,-57,-67,-59,-65,-64,-62,-67,-60,-63,-62,-56,-69,-63
2023-12-08 00:46:41,-62,-65,-59,-65,-61,-62,-68,-56,-65,-63,-60,-67,-60,-64,-66,-60
2023-12-08 00:46:41,-68,-60,-62,-65,-58,-70,-63,-64,-67,-60,-64,-63,-64,-70,-58,-65
2023-12-08 00:46:41,-64,-62,-69,-63,-65,-65,-61,-71,-64,-68,-67,-61,-69,-63,-64,-70
2023-12-08 00:46:41,-62,-69,-67,-63,-70,-63,-68,-69,-65,-69,-64,-68,-67,-60,-69,-62
2023-12-08 00:46:41,-63,-67,-58,-66,-60,-61,-67,-60,-64,-64,-61,-69,-61,-66,-66,-63
2023-12-08 00:46:41,-67,-62,-63,-65,-60,-70,-62,-62,-67,-59,-67,-64,-63,-69,-56,-61
2023-12-08 00:46:41,-64,-62,-67,-61,-62,-64,-56,-64,-58,-59,-63,-55,-66,-62,-61,-66
2023-12-08 00:46:42,-56,-64,-61,-59,-65,-57,-64,-63,-59,-65,-59,-63,-65,-57,-68,-59
2023-12-08 00:46:42,-57,-63,-56,-66,-63,-62,-68,-57,-67,-64,-59,-64,-58,-61,-62,-58
2023-12-08 00:46:42,-65,-60,-63,-65,-57,-67,-60,-61,-65,-58,-63,-61,-60,-69,-58,-62
2023-12-08 00:46:42,-63,-61,-66,-59,-61,-61,-57,-68,-62,-65,-66,-58,-69,-63,-62,-67
2023-12-08 00:46:42,-57,-67,-65,-61,-65,-57,-63,-66,-62,-67,-61,-64,-65,-58,-69,-62
2023-12-08 00:46:42,-65,-66,-61,-70,-66,-65,-71,-59,-65,-63,-61,-66,-59,-63,-64,-61
2023-12-08 00:46:42,-67,-60,-63,-64,-60,-68,-62,-63,-67,-60,-68,-62,-60,-67,-57,-63
2023-12-08 00:46:42,-61,-60,-68,-66,-67,-66,-61,-68,-62,-66,-65,-60,-68,-63,-64,-68
2023-12-08 00:46:42,-60,-66,-65,-62,-66,-58,-62,-64,-61,-69,-61,-63,-61,-57,-69,-60
2023-12-08 00:46:42,-60,-64,-58,-68,-63,-62,-68,-58,-67,-67,-62,-68,-60,-62,-64,-61
2023-12-08 00:46:42,-69,-63,-65,-67,-57,-68,-62,-62,-68,-59,-64,-60,-59,-67,-55,-62
2023-12-08 00:46:43,-62,-60,-66,-59,-63,-62,-59,-66,-60,-63,-64,-55,-65,-60,-61,-65
2023-12-08 00:46:43,-55,-64,-62,-59,-66,-57,-65,-66,-62,-68,-62,-64,-63,-56,-67,-60
2023-12-08 00:46:43,-60,-64,-59,-66,-61,-60,-66,-57,-64,-62,-56,-65,-59,-64,-67,-61
2023-12-08 00:46:43,-67,-62,-65,-67,-60,-67,-59,-60,-66,-61,-67,-67,-63,-68,-58,-65
2023-12-08 00:46:43,-64,-62,-69,-62,-66,-65,-58,-68,-62,-64,-66,-55,-66,-60,-61,-66
2023-12-08 00:46:43,-55,-65,-62,-60,-68,-56,-65,-65,-64,-68,-60,-64,-66,-58,-69,-62
2023-12-08 00:46:43,-62,-65,-58,-66,-62,-63,-70,-60,-67,-64,-61,-68,-61,-65,-66,-62
2023-12-08 00:46:43,-67,-61,-65,-66,-58,-67,-61,-62,-68,-61,-68,-64,-61,-66,-56,-63
2023-12-08 00:46:43,-64,-62,-67,-60,-64,-64,-60,-67,-62,-66,-65,-58,-66,-62,-59,-65
2023-12-08 00:46:43,-55,-63,-61,-61,-69,-59,-63,-61,-60,-68,-63,-64,-64,-58,-67,-62
2023-12-08 00:46:44,-63,-67,-59,-67,-62,-61,-67,-59,-66,-64,-60,-65,-59,-64,-64,-60
2023-12-08 00:46:44,-66,-60,-63,-67,-58,-68,-62,-64,-68,-61,-66,-61,-60,-66,-57,-63
2023-12-08 00:46:44,-64,-61,-67,-60,-61,-61,-57,-63,-58,-62,-65,-56,-66,-60,-59,-65
2023-12-08 00:46:44,-55,-63,-59,-60,-67,-57,-66,-64,-60,-65,-58,-61,-62,-57,-67,-61
2023-12-08 00:46:44,-63,-66,-58,-68,-63,-63,-69,-57,-63,-64,-61,-70,-63,-66,-66,-65
2023-12-08 00:46:44,-69,-61,-62,-65,-57,-68,-61,-60,-65,-57,-65,-61,-61,-68,-57,-66
2023-12-08 00:46:44,-64,-60,-67,-61,-64,-62,-59,-66,-59,-63,-65,-58,-66,-59,-58,-64
2023-12-08 00:46:44,-56,-63,-60,-59,-67,-55,-61,-62,-57,-65,-58,-63,-63,-58,-67,-61
2023-12-08 00:46:44,-65,-65,-58,-67,-63,-63,-68,-58,-64,-64,-62,-66,-59,-63,-62,-60
2023-12-08 00:46:44,-66,-59,-64,-63,-58,-68,-61,-64,-66,-60,-65,-62,-62,-69,-58,-64
2023-12-08 00:46:45,-63,-61,-69,-61,-66,-64,-61,-67,-60,-64,-66,-58,-69,-63,-62,-67
2023-12-08 00:46:45,-58,-64,-62,-62,-70,-57,-63,-63,-60,-67,-59,-62,-61,-59,-66,-60
2023-12-08 00:46:45,-63,-64,-58,-67,-63,-61,-65,-57,-63,-63,-60,-66,-60,-63,-62,-58
2023-12-08 00:46:45,-66,-60,-64,-62,-57,-68,-60,-64,-67,-58,-67,-64,-62,-69,-58,-63
2023-12-08 00:46:45,-63,-62,-68,-60,-65,-63,-60,-66,-61,-65,-66,-58,-66,-61,-60,-66
2023-12-08 00:46:45,-58,-64,-60,-60,-67,-54,-62,-62,-59,-66,-59,-63,-65,-59,-65,-60
2023-12-08 00:46:45,-61,-64,-56,-65,-60,-62,-67,-56,-66,-65,-61,-66,-56,-63,-65,-61
2023-12-08 00:46:45,-66,-61,-63,-64,-57,-69,-60,-60,-63,-58,-67,-62,-60,-64,-55,-63
2023-12-08 00:46:45,-62,-62,-70,-60,-65,-66,-63,-70,-63,-65,-66,-59,-68,-62,-60,-66
2023-12-08 00:46:45,-60,-68,-66,-62,-67,-57,-66,-64,-61,-68,-61,-64,-66,-59,-67,-62
2023-12-08 00:46:45,-62,-63,-56,-66,-62,-64,-69,-57,-66,-64,-61,-68,-58,-62,-65,-62
2023-12-08 00:46:46,-67,-59,-60,-60,-56,-65,-59,-62,-66,-59,-68,-63,-63,-69,-59,-65
2023-12-08 00:46:46,-64,-61,-67,-60,-66,-65,-61,-66,-60,-64,-67,-60,-69,-62,-61,-67
2023-12-08 00:46:46,-61,-68,-64,-62,-67,-58,-64,-64,-62,-71,-65,-67,-65,-60,-66,-60
2023-12-08 00:46:46,-63,-64,-58,-68,-61,-61,-66,-57,-64,-64,-61,-69,-59,-64,-64,-61
2023-12-08 00:46:46,-67,-60,-62,-62,-58,-66,-61,-64,-64,-57,-67,-63,-63,-68,-58,-65
2023-12-08 00:46:46,-64,-60,-67,-58,-63,-64,-62,-68,-61,-63,-62,-57,-69,-61,-65,-65
2023-12-08 00:46:46,-59,-65,-59,-58,-65,-56,-65,-63,-61,-65,-61,-65,-64,-62,-69,-64
2023-12-08 00:46:46,-66,-66,-58,-70,-63,-64,-67,-58,-63,-60,-59,-69,-56,-64,-63,-62
2023-12-08 00:46:46,-68,-64,-68,-67,-59,-69,-61,-64,-63,-54,-62,-57,-62,-68,-58,-66
2023-12-08 00:46:46,-63,-61,-69,-60,-65,-65,-63,-66,-58,-61,-63,-57,-67,-61,-63,-65
2023-12-08 00:46:46,-59,-66,-62,-59,-66,-58,-64,-63,-59,-67,-62,-66,-65,-63,-68,-61
2023-12-08 00:46:47,-62,-66,-58,-69,-60,-62,-65,-58,-64,-62,-62,-70,-59,-68,-66,-62
2023-12-08 00:46:47,-65,-60,-63,-63,-58,-67,-60,-65,-67,-58,-65,-60,-61,-67,-59,-64
2023-12-08 00:46:47,-62,-61,-68,-59,-64,-64,-62,-66,-60,-64,-64,-59,-66,-60,-63,-66
2023-12-08 00:46:47,-59,-68,-64,-63,-67,-59,-65,-63,-60,-66,-60,-66,-64,-60,-65,-59
2023-12-08 00:46:47,-63,-65,-57,-67,-59,-62,-67,-62,-69,-63,-60,-65,-58,-65,-66,-62
2023-12-08 00:46:47,-68,-63,-65,-65,-61,-68,-61,-65,-66,-59,-68,-61,-62,-67,-58,-66
2023-12-08 00:46:47,-62,-62,-68,-57,-62,-64,-62,-68,-60,-64,-62,-59,-66,-61,-64,-64
2023-12-08 00:46:47,-56,-67,-61,-61,-64,-55,-62,-60,-58,-65,-58,-66,-65,-60,-66,-61
2023-12-08 00:46:47,-64,-65,-58,-69,-62,-61,-64,-57,-66,-62,-62,-67,-56,-63,-61,-59
2023-12-08 00:46:47,-66,-58,-66,-68,-63,-67,-60,-64,-68,-60,-71,-61,-59,-64,-57,-65
2023-12-08 00:46:47,-62,-62,-67,-55,-66,-65,-62,-68,-62,-66,-65,-59,-68,-61,-66,-66
2023-12-08 00:46:48,-59,-69,-62,-64,-67,-59,-65,-64,-61,-70,-60,-65,-63,-62,-66,-60
2023-12-08 00:46:48,-63,-65,-57,-69,-61,-63,-63,-55,-65,-61,-61,-67,-56,-65,-64,-60
2023-12-08 00:46:48,-64,-58,-63,-63,-59,-66,-61,-64,-67,-57,-68,-61,-61,-65,-56,-62
2023-12-08 00:46:48,-58,-60,-67,-55,-64,-61,-63,-69,-65,-66,-67,-61,-68,-60,-64,-64
2023-12-08 00:46:48,-58,-65,-62,-63,-69,-60,-65,-63,-62,-68,-57,-62,-63,-62,-68,-61
2023-12-08 00:46:48,-63,-64,-60,-68,-63,-66,-65,-59,-68,-63,-62,-67,-58,-63,-61,-58
2023-12-08 00:46:48,-65,-57,-65,-63,-62,-66,-61,-64,-65,-60,-70,-61,-64,-66,-57,-65
2023-12-08 00:46:48,-61,-61,-69,-61,-66,-65,-62,-68,-62,-64,-63,-61,-67,-60,-62,-64
2023-12-08 00:46:48,-59,-68,-62,-63,-66,-60,-67,-63,-60,-67,-57,-65,-63,-61,-69,-61
2023-12-08 00:46:49,-64,-62,-58,-65,-61,-64,-63,-58,-67,-64,-65,-69,-60,-66,-65,-61
2023-12-08 00:46:49,-69,-58,-63,-63,-63,-69,-62,-62,-63,-60,-70,-62,-64,-65,-58,-68
2023-12-08 00:46:49,-62,-62,-68,-58,-62,-61,-61,-68,-60,-64,-62,-61,-68,-62,-65,-64
2023-12-08 00:46:49,-58,-68,-60,-63,-65,-59,-69,-66,-63,-68,-57,-66,-64,-61,-66,-60
2023-12-08 00:46:49,-65,-65,-60,-69,-61,-66,-66,-58,-70,-65,-65,-67,-58,-63,-58,-61
2023-12-08 00:46:49,-67,-56,-65,-65,-62,-68,-62,-64,-65,-60,-66,-60,-62,-63,-57,-66
2023-12-08 00:46:49,-60,-62,-67,-56,-65,-64,-60,-66,-55,-62,-63,-59,-66,-60,-62,-64
2023-12-08 00:46:49,-56,-65,-58,-61,-63,-54,-64,-60,-59,-65,-55,-63,-60,-58,-65,-58
2023-12-08 00:46:49,-64,-63,-57,-63,-57,-62,-63,-55,-65,-57,-57,-62,-55,-62,-58,-60
2023-12-08 00:46:50,-66,-56,-66,-63,-60,-66,-59,-62,-64,-62,-69,-61,-63,-63,-59,-69
2023-12-08 00:46:50,-64,-64,-68,-62,-70,-66,-64,-67,-60,-67,-67,-63,-70,-65,-68,-65
2023-12-08 00:46:50,-59,-69,-63,-65,-65,-56,-69,-63,-62,-66,-57,-64,-62,-61,-68,-57
2023-12-08 00:46:50,-64,-64,-61,-68,-62,-63,-64,-60,-71,-63,-66,-65,-61,-70,-63,-63
2023-12-08 00:46:50,-68,-57,-63,-62,-60,-68,-61,-64,-62,-61,-67,-61,-63,-63,-57,-69
2023-12-08 00:46:50,-60,-61,-64,-59,-68,-64,-63,-69,-60,-68,-68,-63,-68,-59,-63,-64
2023-12-08 00:46:50,-63,-68,-61,-63,-66,-57,-66,-61,-62,-67,-59,-63,-61,-60,-68,-54
2023-12-08 00:46:50,-63,-62,-59,-66,-60,-63,-65,-60,-67,-59,-65,-65,-58,-65,-60,-62
2023-12-08 00:46:50,-67,-61,-66,-64,-62,-69,-59,-62,-62,-60,-68,-63,-66,-66,-59,-66
2023-12-08 00:46:50,-59,-62,-66,-60,-71,-66,-64,-71,-61,-67,-67,-65,-72,-62,-69,-70
2023-12-08 00:46:51,-67,-69,-64,-67,-69,-63,-68,-61,-66,-69,-61,-69,-65,-66,-72,-61
2023-12-08 00:46:51,-67,-65,-64,-67,-60,-64,-65,-62,-69,-66,-66,-69,-64,-74,-65,-65
2023-12-08 00:46:51,-65,-59,-65,-64,-60,-68,-57,-65,-64,-61,-67,-59,-61,-61,-57,-64
2023-12-08 00:46:51,-60,-63,-66,-58,-68,-62,-61,-64,-54,-62,-61,-59,-65,-53,-61,-61
2023-12-08 00:46:51,-57,-64,-56,-58,-61,-54,-64,-56,-57,-61,-53,-58,-49,-48,-56,-45
2023-12-08 00:46:51,-56,-50,-47,-52,-46,-53,-53,-49,-57,-49,-53,-56,-51,-60,-55,-59
2023-12-08 00:46:51,-65,-55,-65,-60,-59,-68,-58,-66,-64,-63,-70,-62,-64,-67,-62,-70
2023-12-08 00:46:51,-62,-64,-65,-62,-72,-65,-65,-67,-62,-68,-64,-63,-68,-57,-65,-64
2023-12-08 00:46:51,-62,-69,-62,-65,-64,-60,-67,-60,-66,-68,-61,-69,-63,-64,-69,-60
2023-12-08 00:46:51,-66,-66,-64,-70,-60,-64,-64,-61,-67,-59,-59,-59,-53,-64,-60,-60
2023-12-08 00:46:52,-62,-55,-65,-61,-60,-66,-54,-62,-58,-56,-63,-56,-62,-60,-56,-62
2023-12-08 00:46:52,-57,-62,-62,-55,-68,-61,-61,-62,-56,-63,-57,-58,-65,-56,-66,-64
2023-12-08 00:46:52,-57,-63,-56,-64,-64,-59,-63,-57,-63,-66,-55,-67,-60,-62,-65,-58
2023-12-08 00:46:52,-63,-61,-61,-68,-56,-67,-63,-61,-67,-59,-64,-64,-60,-67,-59,-63
2023-12-08 00:46:52,-66,-58,-69,-59,-60,-65,-57,-64,-62,-63,-69,-56,-66,-66,-64,-69
2023-12-08 00:46:52,-62,-63,-64,-58,-67,-61,-64,-64,-57,-64,-58,-60,-65,-55,-64,-63
2023-12-08 00:46:52,-62,-68,-57,-61,-61,-60,-68,-62,-64,-63,-58,-68,-63,-66,-66,-59
2023-12-08 00:46:52,-68,-62,-62,-67,-59,-65,-62,-58,-66,-58,-64,-63,-61,-67,-62,-63
2023-12-08 00:46:52,-61,-57,-68,-60,-63,-66,-61,-66,-61,-60,-66,-57,-64,-63,-58,-69
2023-12-08 00:46:53,-60,-66,-64,-60,-64,-58,-61,-66,-58,-69,-59,-61,-64,-58,-65,-62
2023-12-08 00:46:53,-63,-69,-57,-65,-64,-62,-67,-59,-64,-66,-61,-67,-59,-63,-65,-57
2023-12-08 00:46:53,-66,-60,-62,-67,-57,-65,-61,-60,-68,-58,-65,-63,-62,-69,-62,-66
2023-12-08 00:46:53,-64,-58,-66,-61,-66,-66,-58,-65,-61,-62,-69,-60,-65,-65,-62,-69
2023-12-08 00:46:53,-60,-65,-64,-60,-64,-57,-61,-62,-53,-65,-57,-58,-63,-55,-65,-58
2023-12-08 00:46:53,-61,-68,-59,-68,-64,-61,-67,-60,-64,-62,-60,-65,-59,-62,-65,-57
2023-12-08 00:46:53,-66,-59,-60,-66,-59,-66,-63,-60,-67,-58,-65,-63,-61,-68,-62,-66
2023-12-08 00:46:53,-63,-58,-66,-59,-62,-63,-55,-69,-64,-63,-65,-57,-65,-63,-61,-68
2023-12-08 00:46:53,-54,-63,-62,-59,-66,-57,-62,-63,-57,-63,-59,-60,-66,-55,-66,-59
2023-12-08 00:46:53,-60,-64,-54,-62,-61,-59,-65,-55,-62,-61,-57,-64,-58,-61,-61,-58
2023-12-08 00:46:54,-66,-58,-61,-63,-56,-66,-60,-59,-64,-56,-62,-60,-59,-64,-57,-63
2023-12-08 00:46:54,-63,-59,-66,-57,-56,-60,-50,-62,-56,-59,-66,-52,-66,-61,-61,-66
2023-12-08 00:46:54,-56,-63,-62,-60,-68,-57,-64,-61,-58,-66,-58,-61,-63,-55,-68,-59
2023-12-08 00:46:54,-60,-63,-56,-63,-59,-62,-67,-56,-66,-62,-60,-64,-58,-62,-64,-59
2023-12-08 00:46:54,-65,-59,-63,-65,-57,-65,-59,-61,-66,-59,-63,-62,-61,-70,-59,-66
2023-12-08 00:46:54,-65,-61,-68,-61,-64,-65,-60,-67,-60,-63,-65,-57,-70,-62,-60,-64
2023-12-08 00:46:54,-56,-65,-64,-62,-69,-57,-64,-64,-61,-66,-59,-61,-63,-56,-65,-57
2023-12-08 00:46:54,-60,-64,-56,-65,-61,-59,-64,-54,-61,-61,-62,-66,-58,-64,-62,-60
2023-12-08 00:46:54,-65,-59,-63,-64,-56,-68,-61,-61,-63,-55,-65,-60,-60,-65,-56,-64
2023-12-08 00:46:54,-65,-59,-67,-59,-65,-65,-61,-66,-60,-62,-66,-55,-68,-60,-60,-65
2023-12-08 00:46:55,-58,-65,-61,-60,-69,-58,-68,-64,-60,-69,-61,-68,-65,-62,-67,-59
2023-12-08 00:46:55,-62,-65,-58,-70,-62,-65,-67,-61,-66,-63,-62,-69,-59,-65,-64,-62
2023-12-08 00:46:55,-69,-62,-64,-64,-62,-66,-63,-64,-64,-58,-67,-62,-65,-68,-58,-63
2023-12-08 00:46:55,-61,-59,-68,-59,-66,-64,-60,-68,-62,-65,-63,-59,-66,-61,-64,-64
2023-12-08 00:46:55,-57,-69,-63,-60,-64,-56,-64,-61,-60,-66,-56,-63,-60,-57,-64,-58
2023-12-08 00:46:55,-62,-61,-56,-66,-60,-63,-64,-56,-64,-59,-58,-66,-58,-65,-64,-60
2023-12-08 00:46:55,-65,-58,-62,-65,-62,-68,-60,-61,-63,-57,-66,-59,-64,-69,-59,-65
2023-12-08 00:46:55,-59,-60,-69,-60,-66,-64,-60,-68,-61,-63,-64,-61,-67,-62,-65,-68
2023-12-08 00:46:55,-59,-69,-60,-62,-66,-58,-66,-64,-62,-68,-57,-64,-65,-62,-68,-60
2023-12-08 00:46:56,-64,-64,-59,-67,-60,-64,-67,-59,-68,-62,-65,-69,-59,-63,-61,-60
2023-12-08 00:46:56,-67,-57,-65,-65,-61,-67,-60,-63,-65,-58,-69,-62,-65,-63,-55,-65
2023-12-08 00:46:56,-59,-61,-65,-54,-64,-61,-58,-65,-56,-65,-65,-62,-65,-56,-61,-62
2023-12-08 00:46:56,-57,-66,-61,-64,-66,-56,-65,-61,-60,-65,-54,-65,-64,-61,-66,-57
2023-12-08 00:46:56,-63,-66,-62,-68,-62,-63,-63,-56,-66,-60,-64,-67,-60,-65,-60,-58
2023-12-08 00:46:56,-65,-58,-67,-66,-62,-67,-59,-64,-63,-60,-67,-61,-65,-68,-56,-68
2023-12-08 00:46:56,-60,-61,-63,-56,-65,-63,-61,-68,-56,-65,-62,-61,-66,-55,-65,-63
2023-12-08 00:46:56,-59,-66,-59,-63,-66,-56,-68,-59,-63,-65,-59,-66,-62,-61,-68,-57
2023-12-08 00:46:57,-66,-65,-62,-68,-60,-63,-63,-61,-67,-62,-64,-64,-58,-69,-65,-67
2023-12-08 00:46:57,-69,-61,-67,-63,-58,-64,-55,-61,-61,-59,-63,-59,-61,-65,-61,-67
2023-12-08 00:46:57,-60,-64,-68,-60,-69,-61,-58,-64,-54,-64,-61,-61,-68,-57,-63,-63
2023-12-08 00:46:57,-60,-66,-60,-62,-62,-54,-62,-58,-61,-64,-58,-66,-62,-61,-67,-56
2023-12-08 00:46:57,-64,-60,-58,-64,-58,-62,-61,-60,-66,-61,-63,-63,-56,-69,-62,-63
2023-12-08 00:46:57,-64,-57,-66,-62,-63,-68,-58,-67,-64,-60,-64,-59,-64,-65,-62,-69
2023-12-08 00:46:57,-63,-65,-65,-59,-69,-62,-63,-66,-60,-67,-60,-61,-67,-60,-66,-65
2023-12-08 00:46:57,-60,-67,-59,-64,-64,-61,-68,-61,-62,-65,-57,-69,-62,-63,-66,-58
2023-12-08 00:46:57,-62,-60,-60,-68,-56,-66,-62,-59,-65,-60,-63,-64,-58,-64,-59,-63
2023-12-08 00:46:57,-65,-59,-67,-59,-60,-66,-60,-66,-65,-60,-66,-56,-62,-63,-59,-66
2023-12-08 00:46:57,-59,-63,-63,-57,-64,-57,-60,-65,-55,-65,-57,-58,-63,-55,-63,-60
2023-12-08 00:46:58,-59,-65,-54,-62,-61,-58,-66,-59,-62,-62,-56,-66,-61,-64,-65,-57
2023-12-08 00:46:58,-68,-63,-60,-64,-55,-61,-61,-59,-65,-56,-62,-65,-61,-68,-60,-63
2023-12-08 00:46:58,-64,-56,-68,-61,-61,-64,-55,-64,-59,-61,-67,-57,-64,-62,-59,-66
2023-12-08 00:46:58,-59,-64,-63,-60,-66,-59,-61,-65,-59,-70,-59,-61,-67,-60,-67,-64
2023-12-08 00:46:58,-59,-66,-58,-66,-66,-62,-69,-60,-66,-65,-61,-67,-58,-61,-65,-59
2023-12-08 00:46:58,-67,-62,-64,-70,-63,-68,-64,-62,-67,-58,-64,-66,-64,-69,-62,-65
2023-12-08 00:46:58,-65,-62,-69,-59,-61,-64,-56,-69,-62,-63,-66,-58,-63,-60,-58,-66
2023-12-08 00:46:58,-56,-65,-64,-60,-64,-57,-62,-64,-57,-65,-61,-64,-67,-60,-67,-62
2023-12-08 00:46:58,-62,-67,-58,-63,-61,-58,-66,-57,-63,-64,-62,-68,-60,-63,-62,-58
2023-12-08 00:46:58,-67,-61,-63,-64,-56,-68,-60,-61,-64,-56,-65,-63,-60,-67,-58,-63
2023-12-08 00:46:58,-63,-61,-65,-57,-59,-60,-55,-67,-61,-62,-65,-55,-65,-60,-62,-68
2023-12-08 00:46:59,-57,-65,-64,-60,-65,-58,-64,-64,-60,-67,-60,-63,-68,-59,-70,-62
2023-12-08 00:46:59,-61,-64,-58,-65,-60,-61,-67,-57,-66,-63,-60,-66,-58,-64,-61,-58
2023-12-08 00:46:59,-66,-59,-62,-64,-56,-67,-61,-62,-64,-56,-62,-60,-60,-67,-56,-65
2023-12-08 00:46:59,-62,-61,-68,-62,-65,-65,-62,-66,-61,-64,-66,-57,-67,-60,-59,-65
2023-12-08 00:46:59,-58,-65,-62,-60,-67,-56,-65,-64,-60,-67,-59,-64,-64,-59,-64,-58
2023-12-08 00:46:59,-63,-65,-57,-65,-59,-60,-66,-56,-63,-59,-57,-65,-56,-61,-62,-60
2023-12-08 00:46:59,-65,-60,-62,-63,-58,-68,-60,-63,-64,-55,-68,-61,-58,-63,-55,-63
2023-12-08 00:46:59,-61,-59,-67,-58,-64,-60,-57,-64,-57,-62,-62,-58,-67,-60,-65,-67
2023-12-08 00:46:59,-63,-71,-66,-63,-67,-57,-65,-66,-64,-69,-59,-63,-64,-64,-71,-63
2023-12-08 00:46:59,-65,-65,-57,-68,-61,-63,-66,-61,-66,-62,-59,-66,-57,-64,-62,-58
2023-12-08 00:46:59,-66,-60,-64,-66,-59,-66,-60,-65,-68,-58,-67,-60,-64,-69,-61,-65
2023-12-08 00:47:00,-63,-61,-69,-59,-66,-66,-62,-69,-59,-62,-63,-60,-67,-61,-66,-65
2023-12-08 00:47:00,-59,-67,-61,-63,-67,-59,-67,-62,-59,-66,-56,-60,-62,-60,-67,-59
2023-12-08 00:47:00,-62,-61,-56,-62,-59,-58,-62,-56,-66,-59,-60,-65,-56,-64,-61,-56
2023-12-08 00:47:00,-65,-57,-63,-62,-60,-66,-60,-62,-62,-54,-64,-59,-60,-63,-54,-66
2023-12-08 00:47:00,-59,-60,-65,-55,-63,-60,-58,-67,-59,-65,-63,-60,-66,-60,-63,-62
2023-12-08 00:47:00,-55,-69,-61,-63,-65,-58,-64,-58,-60,-68,-59,-67,-64,-60,-68,-61
2023-12-08 00:47:00,-66,-65,-62,-67,-63,-65,-67,-60,-70,-63,-64,-66,-59,-66,-62,-60
2023-12-08 00:47:00,-67,-58,-66,-65,-62,-68,-62,-66,-63,-62,-68,-62,-63,-63,-57,-67
2023-12-08 00:47:00,-62,-65,-69,-60,-64,-61,-61,-69,-59,-65,-63,-60,-66,-61,-63,-64
2023-12-08 00:47:00,-58,-66,-61,-66,-67,-60,-67,-62,-62,-68,-59,-65,-62,-59,-66,-58
2023-12-08 00:47:01,-64,-64,-61,-67,-62,-64,-66,-55,-66,-57,-58,-61,-55,-68,-64,-62
2023-12-08 00:47:01,-66,-54,-65,-62,-62,-66,-57,-65,-65,-61,-67,-60,-62,-62,-55,-66
2023-12-08 00:47:01,-61,-62,-65,-58,-65,-59,-59,-64,-58,-67,-63,-59,-66,-61,-65,-63
2023-12-08 00:47:01,-61,-67,-61,-64,-63,-59,-68,-63,-63,-68,-60,-68,-64,-63,-67,-56
2023-12-08 00:47:01,-63,-63,-60,-69,-61,-64,-66,-60,-68,-61,-62,-63,-56,-65,-60,-62
2023-12-08 00:47:01,-65,-59,-66,-63,-60,-66,-56,-63,-62,-61,-69,-60,-63,-62,-58,-62
